[Header]
Application Name	LabSolutions
Version	5.111
Data File Name	C:\LabSolutions\Data\Rachel\SampleProject\SampleDataFile_Solution.lcd
Output Date	11/2/2023
Output Time	5:52:08 AM

[File Information]
Type	Data File
Generated	11/1/2023 4:10:13 PM
Generated by	System Administrator
Modified	11/1/2023 4:28:31 PM
Modified by	System Administrator

[Sample Information]
Operator Name	System Administrator
Acquired	11/1/2023 4:10:30 PM
Sample Type	0:Unknown
Level	1
Sample Name	SampleDataFile
Sample ID	Solution
ISTD Amount1	1
ISTD Amount2	1
ISTD Amount3	1
ISTD Amount4	1
ISTD Amount5	1
ISTD Amount6	1
ISTD Amount7	1
ISTD Amount8	1
ISTD Amount9	1
ISTD Amount10	1
ISTD Amount11	1
ISTD Amount12	1
ISTD Amount13	1
ISTD Amount14	1
ISTD Amount15	1
ISTD Amount16	1
ISTD Amount17	1
ISTD Amount18	1
ISTD Amount19	1
ISTD Amount20	1
ISTD Amount21	1
ISTD Amount22	1
ISTD Amount23	1
ISTD Amount24	1
ISTD Amount25	1
ISTD Amount26	1
ISTD Amount27	1
ISTD Amount28	1
ISTD Amount29	1
ISTD Amount30	1
ISTD Amount31	1
ISTD Amount32	1
Sample Amount	1
Dilution Factor	1
Vial#	48
Injection Volume	20

[Original Files]
Data File	C:\LabSolutions\Data\Rachel\SampleProject\SampleDataFile_Solution.lcd
Method File	C:\LabSolutions\Data\Rachel\SampleProject\SampleMethod.lcm
Batch File	C:\LabSolutions\Data\Rachel\SampleProject\SampleBatch.lcb
Report Format File	C:\LabSolutions\System\DEFAULT.lsr

[File Description]


[Configuration]
Instrument Name	HPLC
Instrument #	1
Line #	1
# of Detectors	2
Detector ID	Detector A	Detector B
Detector Name	Detector A	Detector B
# of Channels	2	1

[LC Chromatogram(Detector A-Ch1)]
Interval(msec)	500
# of Points	2161
Start Time(min)	0.000
End Time(min)	18.000
Intensity Units	mAU
Intensity Multiplier	0.001
Wavelength(nm)	210nm
R.Time (min)	Intensity
0.00000	38362
0.00833	38362
0.01667	38337
0.02500	38316
0.03333	38298
0.04167	38283
0.05000	38267
0.05833	38247
0.06667	38219
0.07500	38176
0.08333	38132
0.09167	38110
0.10000	38115
0.10833	38134
0.11667	38157
0.12500	38173
0.13333	38176
0.14167	38169
0.15000	38157
0.15833	38143
0.16667	38125
0.17500	38105
0.18333	38084
0.19167	38059
0.20000	38030
0.20833	38002
0.21667	37977
0.22500	37954
0.23333	37938
0.24167	37927
0.25000	37913
0.25833	37890
0.26667	37864
0.27500	37839
0.28333	37807
0.29167	37766
0.30000	37717
0.30833	37673
0.31667	37656
0.32500	37687
0.33333	37739
0.34167	37757
0.35000	37724
0.35833	37661
0.36667	37590
0.37500	37528
0.38333	37476
0.39167	37426
0.40000	37378
0.40833	37337
0.41667	37302
0.42500	37267
0.43333	37236
0.44167	37209
0.45000	37184
0.45833	37161
0.46667	37138
0.47500	37111
0.48333	37086
0.49167	37066
0.50000	37047
0.50833	37023
0.51667	36998
0.52500	36975
0.53333	36950
0.54167	36925
0.55000	36901
0.55833	36879
0.56667	36861
0.57500	36848
0.58333	36835
0.59167	36818
0.60000	36797
0.60833	36776
0.61667	36755
0.62500	36740
0.63333	36733
0.64167	36726
0.65000	36707
0.65833	36678
0.66667	36643
0.67500	36610
0.68333	36584
0.69167	36562
0.70000	36540
0.70833	36518
0.71667	36497
0.72500	36475
0.73333	36456
0.74167	36440
0.75000	36424
0.75833	36408
0.76667	36395
0.77500	36384
0.78333	36368
0.79167	36346
0.80000	36327
0.80833	36312
0.81667	36301
0.82500	36291
0.83333	36283
0.84167	36276
0.85000	36272
0.85833	36269
0.86667	36260
0.87500	36242
0.88333	36218
0.89167	36194
0.90000	36169
0.90833	36145
0.91667	36124
0.92500	36102
0.93333	36080
0.94167	36059
0.95000	36038
0.95833	36016
0.96667	35994
0.97500	35975
0.98333	35952
0.99167	35921
1.00000	35886
1.00833	35852
1.01667	35824
1.02500	35798
1.03333	35773
1.04167	35751
1.05000	35728
1.05833	35705
1.06667	35680
1.07500	35648
1.08333	35613
1.09167	35577
1.10000	35544
1.10833	35512
1.11667	35482
1.12500	35453
1.13333	35423
1.14167	35393
1.15000	35364
1.15833	35333
1.16667	35301
1.17500	35268
1.18333	35241
1.19167	35220
1.20000	35201
1.20833	35184
1.21667	35165
1.22500	35142
1.23333	35114
1.24167	35083
1.25000	35053
1.25833	35026
1.26667	35001
1.27500	34981
1.28333	34963
1.29167	34943
1.30000	34921
1.30833	34903
1.31667	34889
1.32500	34877
1.33333	34865
1.34167	34849
1.35000	34825
1.35833	34795
1.36667	34769
1.37500	34748
1.38333	34728
1.39167	34705
1.40000	34683
1.40833	34663
1.41667	34645
1.42500	34632
1.43333	34619
1.44167	34604
1.45000	34590
1.45833	34576
1.46667	34562
1.47500	34549
1.48333	34533
1.49167	34517
1.50000	34503
1.50833	34490
1.51667	34474
1.52500	34457
1.53333	34441
1.54167	34429
1.55000	34418
1.55833	34407
1.56667	34396
1.57500	34384
1.58333	34373
1.59167	34365
1.60000	34358
1.60833	34352
1.61667	34346
1.62500	34340
1.63333	34333
1.64167	34326
1.65000	34317
1.65833	34308
1.66667	34300
1.67500	34291
1.68333	34283
1.69167	34274
1.70000	34265
1.70833	34255
1.71667	34243
1.72500	34231
1.73333	34219
1.74167	34210
1.75000	34198
1.75833	34183
1.76667	34169
1.77500	34152
1.78333	34133
1.79167	34117
1.80000	34103
1.80833	34087
1.81667	34067
1.82500	34044
1.83333	34019
1.84167	33991
1.85000	33962
1.85833	33936
1.86667	33914
1.87500	33890
1.88333	33863
1.89167	33835
1.90000	33811
1.90833	33789
1.91667	33771
1.92500	33752
1.93333	33729
1.94167	33705
1.95000	33683
1.95833	33659
1.96667	33635
1.97500	33613
1.98333	33593
1.99167	33570
2.00000	33546
2.00833	33525
2.01667	33501
2.02500	33476
2.03333	33453
2.04167	33430
2.05000	33406
2.05833	33384
2.06667	33364
2.07500	33347
2.08333	33330
2.09167	33311
2.10000	33290
2.10833	33268
2.11667	33244
2.12500	33223
2.13333	33203
2.14167	33183
2.15000	33163
2.15833	33140
2.16667	33116
2.17500	33090
2.18333	33064
2.19167	33039
2.20000	33013
2.20833	32987
2.21667	32963
2.22500	32943
2.23333	32927
2.24167	32912
2.25000	32894
2.25833	32873
2.26667	32859
2.27500	32870
2.28333	32902
2.29167	32928
2.30000	32926
2.30833	32897
2.31667	32851
2.32500	32801
2.33333	32757
2.34167	32720
2.35000	32691
2.35833	32665
2.36667	32642
2.37500	32620
2.38333	32601
2.39167	32584
2.40000	32572
2.40833	32559
2.41667	32542
2.42500	32521
2.43333	32499
2.44167	32476
2.45000	32454
2.45833	32432
2.46667	32411
2.47500	32389
2.48333	32367
2.49167	32341
2.50000	32312
2.50833	32283
2.51667	32257
2.52500	32234
2.53333	32209
2.54167	32180
2.55000	32149
2.55833	32121
2.56667	32097
2.57500	32077
2.58333	32057
2.59167	32035
2.60000	32011
2.60833	31990
2.61667	31971
2.62500	31951
2.63333	31935
2.64167	31919
2.65000	31895
2.65833	31872
2.66667	31853
2.67500	31834
2.68333	31812
2.69167	31787
2.70000	31762
2.70833	31738
2.71667	31716
2.72500	31696
2.73333	31676
2.74167	31655
2.75000	31635
2.75833	31615
2.76667	31598
2.77500	31581
2.78333	31567
2.79167	31556
2.80000	31545
2.80833	31534
2.81667	31521
2.82500	31508
2.83333	31496
2.84167	31488
2.85000	31478
2.85833	31465
2.86667	31451
2.87500	31435
2.88333	31419
2.89167	31404
2.90000	31389
2.90833	31373
2.91667	31359
2.92500	31347
2.93333	31338
2.94167	31332
2.95000	31324
2.95833	31315
2.96667	31307
2.97500	31305
2.98333	31311
2.99167	31319
3.00000	31319
3.00833	31310
3.01667	31294
3.02500	31277
3.03333	31261
3.04167	31246
3.05000	31235
3.05833	31226
3.06667	31218
3.07500	31211
3.08333	31203
3.09167	31197
3.10000	31192
3.10833	31188
3.11667	31182
3.12500	31177
3.13333	31173
3.14167	31167
3.15000	31157
3.15833	31148
3.16667	31140
3.17500	31129
3.18333	31113
3.19167	31098
3.20000	31089
3.20833	31083
3.21667	31077
3.22500	31071
3.23333	31061
3.24167	31043
3.25000	31022
3.25833	31001
3.26667	30984
3.27500	30968
3.28333	30952
3.29167	30935
3.30000	30917
3.30833	30898
3.31667	30880
3.32500	30869
3.33333	30867
3.34167	30863
3.35000	30848
3.35833	30828
3.36667	30807
3.37500	30791
3.38333	30778
3.39167	30767
3.40000	30755
3.40833	30744
3.41667	30737
3.42500	30732
3.43333	30727
3.44167	30726
3.45000	30727
3.45833	30718
3.46667	30705
3.47500	30693
3.48333	30681
3.49167	30671
3.50000	30662
3.50833	30649
3.51667	30633
3.52500	30617
3.53333	30605
3.54167	30598
3.55000	30595
3.55833	30593
3.56667	30590
3.57500	30582
3.58333	30569
3.59167	30553
3.60000	30536
3.60833	30522
3.61667	30513
3.62500	30511
3.63333	30519
3.64167	30530
3.65000	30531
3.65833	30523
3.66667	30511
3.67500	30498
3.68333	30486
3.69167	30473
3.70000	30461
3.70833	30451
3.71667	30439
3.72500	30427
3.73333	30418
3.74167	30409
3.75000	30401
3.75833	30392
3.76667	30382
3.77500	30375
3.78333	30370
3.79167	30365
3.80000	30358
3.80833	30345
3.81667	30331
3.82500	30316
3.83333	30303
3.84167	30294
3.85000	30286
3.85833	30276
3.86667	30266
3.87500	30258
3.88333	30247
3.89167	30235
3.90000	30225
3.90833	30214
3.91667	30200
3.92500	30181
3.93333	30163
3.94167	30145
3.95000	30126
3.95833	30108
3.96667	30092
3.97500	30080
3.98333	30070
3.99167	30059
4.00000	30044
4.00833	30030
4.01667	30018
4.02500	30009
4.03333	30001
4.04167	29995
4.05000	29989
4.05833	29980
4.06667	29972
4.07500	29967
4.08333	29967
4.09167	29972
4.10000	29981
4.10833	29994
4.11667	30016
4.12500	30044
4.13333	30077
4.14167	30120
4.15000	30175
4.15833	30240
4.16667	30318
4.17500	30407
4.18333	30510
4.19167	30627
4.20000	30760
4.20833	30906
4.21667	31060
4.22500	31230
4.23333	31422
4.24167	31639
4.25000	31881
4.25833	32155
4.26667	32473
4.27500	32849
4.28333	33294
4.29167	33830
4.30000	34477
4.30833	35263
4.31667	36209
4.32500	37335
4.33333	38652
4.34167	40167
4.35000	41886
4.35833	43814
4.36667	45946
4.37500	48268
4.38333	50764
4.39167	53414
4.40000	56195
4.40833	59086
4.41667	62061
4.42500	65093
4.43333	68167
4.44167	71265
4.45000	74364
4.45833	77442
4.46667	80487
4.47500	83484
4.48333	86413
4.49167	89254
4.50000	91996
4.50833	94617
4.51667	97091
4.52500	99404
4.53333	101543
4.54167	103501
4.55000	105271
4.55833	106849
4.56667	108230
4.57500	109402
4.58333	110355
4.59167	111088
4.60000	111606
4.60833	111906
4.61667	111996
4.62500	111887
4.63333	111598
4.64167	111144
4.65000	110536
4.65833	109780
4.66667	108892
4.67500	107895
4.68333	106807
4.69167	105646
4.70000	104428
4.70833	103168
4.71667	101885
4.72500	100590
4.73333	99287
4.74167	97991
4.75000	96719
4.75833	95480
4.76667	94273
4.77500	93104
4.78333	91976
4.79167	90887
4.80000	89834
4.80833	88821
4.81667	87860
4.82500	86947
4.83333	86072
4.84167	85232
4.85000	84431
4.85833	83663
4.86667	82924
4.87500	82223
4.88333	81573
4.89167	80972
4.90000	80406
4.90833	79870
4.91667	79366
4.92500	78893
4.93333	78464
4.94167	78084
4.95000	77743
4.95833	77434
4.96667	77155
4.97500	76908
4.98333	76693
4.99167	76509
5.00000	76358
5.00833	76242
5.01667	76151
5.02500	76082
5.03333	76043
5.04167	76041
5.05000	76077
5.05833	76143
5.06667	76232
5.07500	76349
5.08333	76498
5.09167	76680
5.10000	76893
5.10833	77135
5.11667	77409
5.12500	77715
5.13333	78044
5.14167	78395
5.15000	78773
5.15833	79178
5.16667	79611
5.17500	80077
5.18333	80571
5.19167	81086
5.20000	81617
5.20833	82161
5.21667	82722
5.22500	83300
5.23333	83897
5.24167	84515
5.25000	85159
5.25833	85824
5.26667	86510
5.27500	87218
5.28333	87944
5.29167	88682
5.30000	89429
5.30833	90193
5.31667	90983
5.32500	91801
5.33333	92646
5.34167	93510
5.35000	94390
5.35833	95285
5.36667	96192
5.37500	97111
5.38333	98048
5.39167	99003
5.40000	99975
5.40833	100961
5.41667	101956
5.42500	102966
5.43333	103996
5.44167	105037
5.45000	106086
5.45833	107149
5.46667	108230
5.47500	109323
5.48333	110424
5.49167	111549
5.50000	112707
5.50833	113894
5.51667	115105
5.52500	116343
5.53333	117615
5.54167	118922
5.55000	120264
5.55833	121648
5.56667	123075
5.57500	124543
5.58333	126050
5.59167	127597
5.60000	129180
5.60833	130787
5.61667	132411
5.62500	134049
5.63333	135693
5.64167	137335
5.65000	138971
5.65833	140591
5.66667	142178
5.67500	143724
5.68333	145231
5.69167	146692
5.70000	148103
5.70833	149476
5.71667	150812
5.72500	152114
5.73333	153390
5.74167	154635
5.75000	155839
5.75833	157006
5.76667	158153
5.77500	159312
5.78333	160540
5.79167	161927
5.80000	163602
5.80833	165740
5.81667	168560
5.82500	172302
5.83333	177194
5.84167	183385
5.85000	190873
5.85833	199445
5.86667	208652
5.87500	217835
5.88333	226215
5.89167	233028
5.90000	237670
5.90833	239795
5.91667	239348
5.92500	236551
5.93333	231815
5.94167	225649
5.95000	218584
5.95833	211114
5.96667	203664
5.97500	196566
5.98333	190070
5.99167	184348
6.00000	179507
6.00833	175629
6.01667	172784
6.02500	171021
6.03333	170388
6.04167	170935
6.05000	172723
6.05833	175828
6.06667	180338
6.07500	186351
6.08333	193958
6.09167	203229
6.10000	214198
6.10833	226835
6.11667	241060
6.12500	256738
6.13333	273653
6.14167	291533
6.15000	310069
6.15833	328895
6.16667	347630
6.17500	365916
6.18333	383414
6.19167	399807
6.20000	414848
6.20833	428356
6.21667	440141
6.22500	450012
6.23333	457832
6.24167	463538
6.25000	467131
6.25833	468666
6.26667	468251
6.27500	465781
6.28333	459628
6.29167	445069
6.30000	416583
6.30833	373275
6.31667	320219
6.32500	264678
6.33333	212386
6.34167	166408
6.35000	127689
6.35833	95985
6.36667	70556
6.37500	50512
6.38333	34958
6.39167	23060
6.40000	14084
6.40833	7395
6.41667	2454
6.42500	-1164
6.43333	-3790
6.44167	-5699
6.45000	-7095
6.45833	-8113
6.46667	-8847
6.47500	-9362
6.48333	-9707
6.49167	-9919
6.50000	-10025
6.50833	-10046
6.51667	-10003
6.52500	-9921
6.53333	-9813
6.54167	-9681
6.55000	-9525
6.55833	-9348
6.56667	-9152
6.57500	-8933
6.58333	-8694
6.59167	-8439
6.60000	-8172
6.60833	-7892
6.61667	-7593
6.62500	-7276
6.63333	-6942
6.64167	-6587
6.65000	-6214
6.65833	-5826
6.66667	-5416
6.67500	-4993
6.68333	-4565
6.69167	-4123
6.70000	-3664
6.70833	-3188
6.71667	-2696
6.72500	-2190
6.73333	-1671
6.74167	-1137
6.75000	-587
6.75833	-19
6.76667	568
6.77500	1171
6.78333	1787
6.79167	2411
6.80000	3046
6.80833	3693
6.81667	4352
6.82500	5022
6.83333	5707
6.84167	6407
6.85000	7119
6.85833	7844
6.86667	8581
6.87500	9327
6.88333	10085
6.89167	10854
6.90000	11636
6.90833	12429
6.91667	13233
6.92500	14051
6.93333	14887
6.94167	15739
6.95000	16604
6.95833	17481
6.96667	18369
6.97500	19273
6.98333	20200
6.99167	21142
7.00000	22089
7.00833	23042
7.01667	24001
7.02500	24965
7.03333	25930
7.04167	26891
7.05000	27845
7.05833	28796
7.06667	29745
7.07500	30689
7.08333	31620
7.09167	32538
7.10000	33448
7.10833	34353
7.11667	35253
7.12500	36151
7.13333	37051
7.14167	37939
7.15000	38809
7.15833	39667
7.16667	40518
7.17500	41359
7.18333	42195
7.19167	43025
7.20000	43843
7.20833	44645
7.21667	45425
7.22500	46184
7.23333	46920
7.24167	47628
7.25000	48300
7.25833	48934
7.26667	49527
7.27500	50073
7.28333	50570
7.29167	51019
7.30000	51428
7.30833	51803
7.31667	52149
7.32500	52472
7.33333	52775
7.34167	53062
7.35000	53335
7.35833	53595
7.36667	53845
7.37500	54084
7.38333	54313
7.39167	54533
7.40000	54739
7.40833	54929
7.41667	55106
7.42500	55269
7.43333	55413
7.44167	55542
7.45000	55658
7.45833	55755
7.46667	55836
7.47500	55906
7.48333	55967
7.49167	56020
7.50000	56060
7.50833	56086
7.51667	56097
7.52500	56095
7.53333	56088
7.54167	56074
7.55000	56053
7.55833	56025
7.56667	55993
7.57500	55956
7.58333	55918
7.59167	55879
7.60000	55840
7.60833	55803
7.61667	55770
7.62500	55742
7.63333	55718
7.64167	55696
7.65000	55678
7.65833	55671
7.66667	55675
7.67500	55687
7.68333	55709
7.69167	55741
7.70000	55781
7.70833	55827
7.71667	55877
7.72500	55938
7.73333	56008
7.74167	56084
7.75000	56174
7.75833	56280
7.76667	56389
7.77500	56494
7.78333	56601
7.79167	56715
7.80000	56831
7.80833	56947
7.81667	57064
7.82500	57183
7.83333	57306
7.84167	57435
7.85000	57573
7.85833	57722
7.86667	57883
7.87500	58053
7.88333	58235
7.89167	58432
7.90000	58650
7.90833	58900
7.91667	59190
7.92500	59490
7.93333	59761
7.94167	59987
7.95000	60185
7.95833	60378
7.96667	60578
7.97500	60792
7.98333	61018
7.99167	61247
8.00000	61473
8.00833	61692
8.01667	61908
8.02500	62129
8.03333	62349
8.04167	62568
8.05000	62793
8.05833	63019
8.06667	63241
8.07500	63455
8.08333	63658
8.09167	63852
8.10000	64043
8.10833	64231
8.11667	64418
8.12500	64605
8.13333	64798
8.14167	64996
8.15000	65202
8.15833	65410
8.16667	65613
8.17500	65807
8.18333	65993
8.19167	66175
8.20000	66357
8.20833	66536
8.21667	66711
8.22500	66886
8.23333	67065
8.24167	67248
8.25000	67433
8.25833	67623
8.26667	67818
8.27500	68020
8.28333	68223
8.29167	68426
8.30000	68630
8.30833	68840
8.31667	69055
8.32500	69268
8.33333	69473
8.34167	69669
8.35000	69858
8.35833	70039
8.36667	70210
8.37500	70365
8.38333	70504
8.39167	70630
8.40000	70747
8.40833	70857
8.41667	70956
8.42500	71045
8.43333	71129
8.44167	71214
8.45000	71302
8.45833	71388
8.46667	71472
8.47500	71556
8.48333	71641
8.49167	71728
8.50000	71818
8.50833	71908
8.51667	71996
8.52500	72083
8.53333	72167
8.54167	72246
8.55000	72325
8.55833	72405
8.56667	72488
8.57500	72575
8.58333	72662
8.59167	72746
8.60000	72825
8.60833	72901
8.61667	72975
8.62500	73045
8.63333	73112
8.64167	73177
8.65000	73238
8.65833	73296
8.66667	73346
8.67500	73388
8.68333	73428
8.69167	73467
8.70000	73506
8.70833	73547
8.71667	73597
8.72500	73655
8.73333	73703
8.74167	73726
8.75000	73717
8.75833	73687
8.76667	73649
8.77500	73605
8.78333	73555
8.79167	73504
8.80000	73456
8.80833	73409
8.81667	73358
8.82500	73299
8.83333	73234
8.84167	73162
8.85000	73078
8.85833	72979
8.86667	72863
8.87500	72729
8.88333	72576
8.89167	72406
8.90000	72219
8.90833	72019
8.91667	71804
8.92500	71571
8.93333	71322
8.94167	71058
8.95000	70783
8.95833	70497
8.96667	70196
8.97500	69881
8.98333	69555
8.99167	69220
9.00000	68878
9.00833	68530
9.01667	68178
9.02500	67823
9.03333	67468
9.04167	67112
9.05000	66756
9.05833	66403
9.06667	66055
9.07500	65709
9.08333	65362
9.09167	65019
9.10000	64681
9.10833	64347
9.11667	64018
9.12500	63693
9.13333	63369
9.14167	63046
9.15000	62728
9.15833	62417
9.16667	62114
9.17500	61818
9.18333	61527
9.19167	61240
9.20000	60956
9.20833	60674
9.21667	60396
9.22500	60124
9.23333	59858
9.24167	59594
9.25000	59334
9.25833	59078
9.26667	58827
9.27500	58580
9.28333	58332
9.29167	58080
9.30000	57826
9.30833	57573
9.31667	57324
9.32500	57080
9.33333	56837
9.34167	56594
9.35000	56350
9.35833	56101
9.36667	55851
9.37500	55603
9.38333	55360
9.39167	55124
9.40000	54891
9.40833	54657
9.41667	54421
9.42500	54188
9.43333	53961
9.44167	53741
9.45000	53527
9.45833	53320
9.46667	53116
9.47500	52911
9.48333	52712
9.49167	52522
9.50000	52342
9.50833	52168
9.51667	52000
9.52500	51837
9.53333	51680
9.54167	51525
9.55000	51373
9.55833	51223
9.56667	51077
9.57500	50936
9.58333	50799
9.59167	50662
9.60000	50525
9.60833	50391
9.61667	50259
9.62500	50130
9.63333	50006
9.64167	49884
9.65000	49761
9.65833	49635
9.66667	49508
9.67500	49383
9.68333	49259
9.69167	49137
9.70000	49014
9.70833	48893
9.71667	48773
9.72500	48654
9.73333	48537
9.74167	48422
9.75000	48305
9.75833	48184
9.76667	48060
9.77500	47938
9.78333	47820
9.79167	47702
9.80000	47580
9.80833	47454
9.81667	47326
9.82500	47201
9.83333	47078
9.84167	46958
9.85000	46841
9.85833	46727
9.86667	46614
9.87500	46499
9.88333	46384
9.89167	46270
9.90000	46158
9.90833	46052
9.91667	45948
9.92500	45849
9.93333	45750
9.94167	45643
9.95000	45531
9.95833	45417
9.96667	45304
9.97500	45196
9.98333	45089
9.99167	44983
10.00000	44876
10.00833	44770
10.01667	44667
10.02500	44564
10.03333	44462
10.04167	44361
10.05000	44260
10.05833	44159
10.06667	44057
10.07500	43954
10.08333	43852
10.09167	43750
10.10000	43646
10.10833	43538
10.11667	43432
10.12500	43330
10.13333	43227
10.14167	43123
10.15000	43020
10.15833	42919
10.16667	42817
10.17500	42712
10.18333	42602
10.19167	42489
10.20000	42380
10.20833	42273
10.21667	42166
10.22500	42059
10.23333	41949
10.24167	41841
10.25000	41738
10.25833	41636
10.26667	41528
10.27500	41413
10.28333	41293
10.29167	41170
10.30000	41047
10.30833	40926
10.31667	40808
10.32500	40692
10.33333	40579
10.34167	40461
10.35000	40333
10.35833	40197
10.36667	40061
10.37500	39929
10.38333	39797
10.39167	39665
10.40000	39530
10.40833	39394
10.41667	39257
10.42500	39119
10.43333	38979
10.44167	38839
10.45000	38699
10.45833	38558
10.46667	38418
10.47500	38281
10.48333	38146
10.49167	38007
10.50000	37860
10.50833	37707
10.51667	37553
10.52500	37398
10.53333	37244
10.54167	37091
10.55000	36942
10.55833	36795
10.56667	36649
10.57500	36507
10.58333	36368
10.59167	36225
10.60000	36079
10.60833	35933
10.61667	35786
10.62500	35635
10.63333	35479
10.64167	35324
10.65000	35170
10.65833	35017
10.66667	34864
10.67500	34708
10.68333	34547
10.69167	34382
10.70000	34217
10.70833	34055
10.71667	33899
10.72500	33740
10.73333	33567
10.74167	33375
10.75000	33170
10.75833	32963
10.76667	32759
10.77500	32557
10.78333	32354
10.79167	32149
10.80000	31944
10.80833	31742
10.81667	31542
10.82500	31346
10.83333	31150
10.84167	30952
10.85000	30759
10.85833	30574
10.86667	30392
10.87500	30210
10.88333	30030
10.89167	29857
10.90000	29688
10.90833	29522
10.91667	29352
10.92500	29180
10.93333	29012
10.94167	28853
10.95000	28695
10.95833	28531
10.96667	28357
10.97500	28180
10.98333	28005
10.99167	27837
11.00000	27678
11.00833	27522
11.01667	27366
11.02500	27210
11.03333	27052
11.04167	26895
11.05000	26739
11.05833	26585
11.06667	26433
11.07500	26275
11.08333	26109
11.09167	25937
11.10000	25762
11.10833	25588
11.11667	25421
11.12500	25263
11.13333	25112
11.14167	24970
11.15000	24838
11.15833	24716
11.16667	24609
11.17500	24514
11.18333	24426
11.19167	24347
11.20000	24273
11.20833	24204
11.21667	24141
11.22500	24080
11.23333	24019
11.24167	23956
11.25000	23899
11.25833	23848
11.26667	23799
11.27500	23750
11.28333	23703
11.29167	23661
11.30000	23623
11.30833	23586
11.31667	23548
11.32500	23511
11.33333	23476
11.34167	23446
11.35000	23421
11.35833	23398
11.36667	23372
11.37500	23341
11.38333	23307
11.39167	23271
11.40000	23234
11.40833	23200
11.41667	23169
11.42500	23140
11.43333	23112
11.44167	23087
11.45000	23069
11.45833	23057
11.46667	23045
11.47500	23025
11.48333	22995
11.49167	22960
11.50000	22931
11.50833	22916
11.51667	22912
11.52500	22907
11.53333	22892
11.54167	22865
11.55000	22828
11.55833	22787
11.56667	22748
11.57500	22716
11.58333	22686
11.59167	22661
11.60000	22640
11.60833	22619
11.61667	22591
11.62500	22560
11.63333	22532
11.64167	22513
11.65000	22500
11.65833	22487
11.66667	22471
11.67500	22454
11.68333	22439
11.69167	22431
11.70000	22434
11.70833	22445
11.71667	22457
11.72500	22467
11.73333	22463
11.74167	22441
11.75000	22408
11.75833	22373
11.76667	22340
11.77500	22309
11.78333	22280
11.79167	22256
11.80000	22235
11.80833	22218
11.81667	22205
11.82500	22198
11.83333	22196
11.84167	22193
11.85000	22184
11.85833	22169
11.86667	22151
11.87500	22133
11.88333	22115
11.89167	22099
11.90000	22080
11.90833	22059
11.91667	22040
11.92500	22026
11.93333	22014
11.94167	22001
11.95000	21991
11.95833	21984
11.96667	21977
11.97500	21969
11.98333	21962
11.99167	21954
12.00000	21948
12.00833	21944
12.01667	21939
12.02500	21932
12.03333	21923
12.04167	21915
12.05000	21908
12.05833	21901
12.06667	21892
12.07500	21879
12.08333	21866
12.09167	21856
12.10000	21849
12.10833	21841
12.11667	21831
12.12500	21815
12.13333	21798
12.14167	21785
12.15000	21771
12.15833	21756
12.16667	21742
12.17500	21728
12.18333	21714
12.19167	21698
12.20000	21678
12.20833	21657
12.21667	21636
12.22500	21620
12.23333	21607
12.24167	21595
12.25000	21585
12.25833	21575
12.26667	21564
12.27500	21554
12.28333	21547
12.29167	21542
12.30000	21536
12.30833	21528
12.31667	21518
12.32500	21510
12.33333	21503
12.34167	21496
12.35000	21492
12.35833	21491
12.36667	21491
12.37500	21491
12.38333	21492
12.39167	21496
12.40000	21500
12.40833	21506
12.41667	21514
12.42500	21520
12.43333	21521
12.44167	21517
12.45000	21509
12.45833	21500
12.46667	21492
12.47500	21486
12.48333	21483
12.49167	21482
12.50000	21483
12.50833	21479
12.51667	21471
12.52500	21462
12.53333	21454
12.54167	21445
12.55000	21431
12.55833	21415
12.56667	21394
12.57500	21368
12.58333	21342
12.59167	21319
12.60000	21300
12.60833	21286
12.61667	21271
12.62500	21254
12.63333	21237
12.64167	21219
12.65000	21200
12.65833	21181
12.66667	21166
12.67500	21154
12.68333	21141
12.69167	21126
12.70000	21116
12.70833	21110
12.71667	21103
12.72500	21094
12.73333	21087
12.74167	21082
12.75000	21077
12.75833	21070
12.76667	21060
12.77500	21047
12.78333	21033
12.79167	21020
12.80000	21008
12.80833	21000
12.81667	20993
12.82500	20990
12.83333	20984
12.84167	20979
12.85000	20986
12.85833	21016
12.86667	21081
12.87500	21155
12.88333	21188
12.89167	21168
12.90000	21114
12.90833	21054
12.91667	21000
12.92500	20956
12.93333	20922
12.94167	20896
12.95000	20879
12.95833	20870
12.96667	20865
12.97500	20862
12.98333	20867
12.99167	20885
13.00000	20917
13.00833	20958
13.01667	21006
13.02500	21066
13.03333	21143
13.04167	21228
13.05000	21312
13.05833	21394
13.06667	21483
13.07500	21586
13.08333	21705
13.09167	21840
13.10000	21992
13.10833	22164
13.11667	22356
13.12500	22565
13.13333	22788
13.14167	23017
13.15000	23247
13.15833	23473
13.16667	23690
13.17500	23896
13.18333	24092
13.19167	24274
13.20000	24442
13.20833	24596
13.21667	24736
13.22500	24863
13.23333	24976
13.24167	25077
13.25000	25169
13.25833	25254
13.26667	25336
13.27500	25411
13.28333	25479
13.29167	25540
13.30000	25591
13.30833	25633
13.31667	25668
13.32500	25699
13.33333	25728
13.34167	25750
13.35000	25765
13.35833	25772
13.36667	25769
13.37500	25751
13.38333	25721
13.39167	25682
13.40000	25640
13.40833	25596
13.41667	25545
13.42500	25485
13.43333	25418
13.44167	25344
13.45000	25265
13.45833	25182
13.46667	25094
13.47500	25001
13.48333	24904
13.49167	24805
13.50000	24706
13.50833	24606
13.51667	24506
13.52500	24410
13.53333	24317
13.54167	24224
13.55000	24132
13.55833	24044
13.56667	23957
13.57500	23867
13.58333	23773
13.59167	23679
13.60000	23585
13.60833	23491
13.61667	23400
13.62500	23312
13.63333	23220
13.64167	23117
13.65000	23000
13.65833	22871
13.66667	22738
13.67500	22601
13.68333	22461
13.69167	22316
13.70000	22163
13.70833	22002
13.71667	21839
13.72500	21683
13.73333	21534
13.74167	21389
13.75000	21250
13.75833	21118
13.76667	20992
13.77500	20877
13.78333	20776
13.79167	20687
13.80000	20606
13.80833	20529
13.81667	20455
13.82500	20385
13.83333	20328
13.84167	20282
13.85000	20240
13.85833	20202
13.86667	20167
13.87500	20134
13.88333	20106
13.89167	20081
13.90000	20054
13.90833	20024
13.91667	19997
13.92500	19975
13.93333	19957
13.94167	19941
13.95000	19925
13.95833	19908
13.96667	19889
13.97500	19870
13.98333	19854
13.99167	19841
14.00000	19827
14.00833	19812
14.01667	19802
14.02500	19796
14.03333	19790
14.04167	19781
14.05000	19771
14.05833	19760
14.06667	19752
14.07500	19744
14.08333	19738
14.09167	19731
14.10000	19719
14.10833	19700
14.11667	19682
14.12500	19667
14.13333	19657
14.14167	19654
14.15000	19651
14.15833	19642
14.16667	19628
14.17500	19616
14.18333	19607
14.19167	19598
14.20000	19585
14.20833	19567
14.21667	19550
14.22500	19535
14.23333	19521
14.24167	19509
14.25000	19500
14.25833	19496
14.26667	19494
14.27500	19490
14.28333	19487
14.29167	19486
14.30000	19485
14.30833	19478
14.31667	19466
14.32500	19452
14.33333	19440
14.34167	19430
14.35000	19422
14.35833	19422
14.36667	19430
14.37500	19434
14.38333	19427
14.39167	19410
14.40000	19389
14.40833	19368
14.41667	19347
14.42500	19328
14.43333	19315
14.44167	19309
14.45000	19304
14.45833	19298
14.46667	19295
14.47500	19296
14.48333	19293
14.49167	19286
14.50000	19279
14.50833	19273
14.51667	19266
14.52500	19260
14.53333	19261
14.54167	19268
14.55000	19279
14.55833	19289
14.56667	19295
14.57500	19295
14.58333	19293
14.59167	19288
14.60000	19280
14.60833	19273
14.61667	19268
14.62500	19262
14.63333	19255
14.64167	19244
14.65000	19232
14.65833	19220
14.66667	19206
14.67500	19188
14.68333	19169
14.69167	19153
14.70000	19142
14.70833	19139
14.71667	19149
14.72500	19170
14.73333	19185
14.74167	19181
14.75000	19159
14.75833	19131
14.76667	19103
14.77500	19077
14.78333	19057
14.79167	19040
14.80000	19025
14.80833	19015
14.81667	19006
14.82500	18993
14.83333	18976
14.84167	18960
14.85000	18946
14.85833	18931
14.86667	18913
14.87500	18895
14.88333	18880
14.89167	18869
14.90000	18864
14.90833	18861
14.91667	18856
14.92500	18846
14.93333	18833
14.94167	18822
14.95000	18816
14.95833	18812
14.96667	18802
14.97500	18786
14.98333	18770
14.99167	18759
15.00000	18748
15.00833	18737
15.01667	18724
15.02500	18710
15.03333	18696
15.04167	18684
15.05000	18675
15.05833	18667
15.06667	18664
15.07500	18669
15.08333	18681
15.09167	18686
15.10000	18680
15.10833	18664
15.11667	18641
15.12500	18616
15.13333	18594
15.14167	18574
15.15000	18554
15.15833	18533
15.16667	18513
15.17500	18492
15.18333	18474
15.19167	18461
15.20000	18450
15.20833	18438
15.21667	18422
15.22500	18401
15.23333	18377
15.24167	18355
15.25000	18335
15.25833	18317
15.26667	18302
15.27500	18288
15.28333	18273
15.29167	18262
15.30000	18255
15.30833	18248
15.31667	18241
15.32500	18235
15.33333	18242
15.34167	18258
15.35000	18271
15.35833	18270
15.36667	18256
15.37500	18238
15.38333	18219
15.39167	18200
15.40000	18178
15.40833	18154
15.41667	18131
15.42500	18110
15.43333	18089
15.44167	18067
15.45000	18047
15.45833	18031
15.46667	18017
15.47500	18002
15.48333	17989
15.49167	17975
15.50000	17958
15.50833	17939
15.51667	17924
15.52500	17915
15.53333	17908
15.54167	17901
15.55000	17894
15.55833	17885
15.56667	17876
15.57500	17869
15.58333	17862
15.59167	17855
15.60000	17847
15.60833	17835
15.61667	17819
15.62500	17803
15.63333	17790
15.64167	17780
15.65000	17772
15.65833	17767
15.66667	17760
15.67500	17749
15.68333	17738
15.69167	17729
15.70000	17723
15.70833	17722
15.71667	17722
15.72500	17717
15.73333	17707
15.74167	17694
15.75000	17682
15.75833	17672
15.76667	17661
15.77500	17653
15.78333	17647
15.79167	17642
15.80000	17634
15.80833	17623
15.81667	17610
15.82500	17597
15.83333	17587
15.84167	17578
15.85000	17568
15.85833	17557
15.86667	17549
15.87500	17541
15.88333	17538
15.89167	17548
15.90000	17576
15.90833	17614
15.91667	17640
15.92500	17641
15.93333	17615
15.94167	17577
15.95000	17541
15.95833	17508
15.96667	17476
15.97500	17448
15.98333	17424
15.99167	17404
16.00000	17387
16.00833	17369
16.01667	17354
16.02500	17345
16.03333	17342
16.04167	17336
16.05000	17327
16.05833	17318
16.06667	17306
16.07500	17292
16.08333	17279
16.09167	17269
16.10000	17264
16.10833	17259
16.11667	17255
16.12500	17256
16.13333	17264
16.14167	17275
16.15000	17276
16.15833	17260
16.16667	17235
16.17500	17210
16.18333	17186
16.19167	17164
16.20000	17145
16.20833	17129
16.21667	17114
16.22500	17102
16.23333	17091
16.24167	17078
16.25000	17062
16.25833	17047
16.26667	17034
16.27500	17024
16.28333	17013
16.29167	17005
16.30000	16998
16.30833	16988
16.31667	16973
16.32500	16956
16.33333	16938
16.34167	16919
16.35000	16902
16.35833	16892
16.36667	16883
16.37500	16870
16.38333	16854
16.39167	16840
16.40000	16834
16.40833	16838
16.41667	16843
16.42500	16839
16.43333	16826
16.44167	16805
16.45000	16785
16.45833	16779
16.46667	16788
16.47500	16798
16.48333	16802
16.49167	16803
16.50000	16802
16.50833	16791
16.51667	16772
16.52500	16752
16.53333	16734
16.54167	16717
16.55000	16705
16.55833	16698
16.56667	16694
16.57500	16690
16.58333	16686
16.59167	16684
16.60000	16680
16.60833	16674
16.61667	16664
16.62500	16653
16.63333	16643
16.64167	16636
16.65000	16629
16.65833	16619
16.66667	16605
16.67500	16592
16.68333	16583
16.69167	16582
16.70000	16582
16.70833	16574
16.71667	16560
16.72500	16550
16.73333	16541
16.74167	16533
16.75000	16524
16.75833	16514
16.76667	16502
16.77500	16488
16.78333	16473
16.79167	16457
16.80000	16444
16.80833	16434
16.81667	16425
16.82500	16415
16.83333	16404
16.84167	16394
16.85000	16387
16.85833	16381
16.86667	16371
16.87500	16359
16.88333	16350
16.89167	16344
16.90000	16337
16.90833	16328
16.91667	16318
16.92500	16309
16.93333	16302
16.94167	16296
16.95000	16287
16.95833	16275
16.96667	16264
16.97500	16258
16.98333	16251
16.99167	16241
17.00000	16231
17.00833	16221
17.01667	16212
17.02500	16203
17.03333	16197
17.04167	16190
17.05000	16182
17.05833	16175
17.06667	16169
17.07500	16160
17.08333	16151
17.09167	16142
17.10000	16132
17.10833	16121
17.11667	16109
17.12500	16098
17.13333	16090
17.14167	16081
17.15000	16072
17.15833	16064
17.16667	16054
17.17500	16039
17.18333	16021
17.19167	16004
17.20000	15990
17.20833	15980
17.21667	15973
17.22500	15966
17.23333	15954
17.24167	15937
17.25000	15922
17.25833	15911
17.26667	15901
17.27500	15892
17.28333	15886
17.29167	15880
17.30000	15877
17.30833	15880
17.31667	15880
17.32500	15873
17.33333	15862
17.34167	15845
17.35000	15821
17.35833	15797
17.36667	15780
17.37500	15768
17.38333	15758
17.39167	15747
17.40000	15737
17.40833	15729
17.41667	15722
17.42500	15716
17.43333	15707
17.44167	15699
17.45000	15694
17.45833	15695
17.46667	15697
17.47500	15693
17.48333	15687
17.49167	15678
17.50000	15666
17.50833	15653
17.51667	15642
17.52500	15634
17.53333	15626
17.54167	15620
17.55000	15616
17.55833	15613
17.56667	15609
17.57500	15601
17.58333	15591
17.59167	15585
17.60000	15580
17.60833	15574
17.61667	15567
17.62500	15561
17.63333	15556
17.64167	15551
17.65000	15546
17.65833	15543
17.66667	15542
17.67500	15538
17.68333	15529
17.69167	15515
17.70000	15502
17.70833	15493
17.71667	15484
17.72500	15471
17.73333	15458
17.74167	15446
17.75000	15434
17.75833	15420
17.76667	15405
17.77500	15393
17.78333	15387
17.79167	15382
17.80000	15369
17.80833	15347
17.81667	15326
17.82500	15308
17.83333	15293
17.84167	15279
17.85000	15263
17.85833	15247
17.86667	15234
17.87500	15226
17.88333	15219
17.89167	15213
17.90000	15206
17.90833	15194
17.91667	15181
17.92500	15168
17.93333	15155
17.94167	15144
17.95000	15133
17.95833	15122
17.96667	15109
17.97500	15098
17.98333	15090
17.99167	15079
18.00000	15066

[LC Chromatogram(Detector A-Ch2)]
Interval(msec)	500
# of Points	2161
Start Time(min)	0.000
End Time(min)	18.000
Intensity Units	mAU
Intensity Multiplier	0.001
Wavelength(nm)	254nm
R.Time (min)	Intensity
0.00000	5557
0.00833	5557
0.01667	5549
0.02500	5544
0.03333	5541
0.04167	5538
0.05000	5536
0.05833	5533
0.06667	5529
0.07500	5522
0.08333	5514
0.09167	5510
0.10000	5512
0.10833	5516
0.11667	5523
0.12500	5530
0.13333	5534
0.14167	5534
0.15000	5531
0.15833	5528
0.16667	5524
0.17500	5522
0.18333	5521
0.19167	5519
0.20000	5515
0.20833	5510
0.21667	5506
0.22500	5506
0.23333	5512
0.24167	5523
0.25000	5529
0.25833	5530
0.26667	5532
0.27500	5535
0.28333	5531
0.29167	5518
0.30000	5500
0.30833	5486
0.31667	5499
0.32500	5552
0.33333	5612
0.34167	5639
0.35000	5627
0.35833	5591
0.36667	5551
0.37500	5517
0.38333	5489
0.39167	5464
0.40000	5443
0.40833	5430
0.41667	5420
0.42500	5413
0.43333	5408
0.44167	5403
0.45000	5399
0.45833	5396
0.46667	5393
0.47500	5389
0.48333	5385
0.49167	5382
0.50000	5378
0.50833	5371
0.51667	5364
0.52500	5360
0.53333	5358
0.54167	5357
0.55000	5357
0.55833	5357
0.56667	5356
0.57500	5355
0.58333	5354
0.59167	5353
0.60000	5350
0.60833	5344
0.61667	5339
0.62500	5338
0.63333	5343
0.64167	5347
0.65000	5346
0.65833	5340
0.66667	5331
0.67500	5322
0.68333	5315
0.69167	5310
0.70000	5304
0.70833	5299
0.71667	5293
0.72500	5288
0.73333	5286
0.74167	5285
0.75000	5282
0.75833	5278
0.76667	5274
0.77500	5269
0.78333	5264
0.79167	5259
0.80000	5255
0.80833	5252
0.81667	5248
0.82500	5243
0.83333	5239
0.84167	5239
0.85000	5241
0.85833	5241
0.86667	5239
0.87500	5232
0.88333	5223
0.89167	5211
0.90000	5198
0.90833	5186
0.91667	5176
0.92500	5164
0.93333	5153
0.94167	5142
0.95000	5132
0.95833	5124
0.96667	5117
0.97500	5108
0.98333	5094
0.99167	5077
1.00000	5060
1.00833	5042
1.01667	5026
1.02500	5011
1.03333	4996
1.04167	4981
1.05000	4967
1.05833	4954
1.06667	4939
1.07500	4923
1.08333	4906
1.09167	4890
1.10000	4876
1.10833	4863
1.11667	4850
1.12500	4837
1.13333	4825
1.14167	4812
1.15000	4800
1.15833	4788
1.16667	4776
1.17500	4765
1.18333	4757
1.19167	4754
1.20000	4755
1.20833	4758
1.21667	4766
1.22500	4773
1.23333	4776
1.24167	4774
1.25000	4771
1.25833	4771
1.26667	4779
1.27500	4793
1.28333	4805
1.29167	4815
1.30000	4826
1.30833	4841
1.31667	4863
1.32500	4888
1.33333	4914
1.34167	4939
1.35000	4961
1.35833	4981
1.36667	5007
1.37500	5039
1.38333	5074
1.39167	5112
1.40000	5156
1.40833	5207
1.41667	5263
1.42500	5323
1.43333	5386
1.44167	5450
1.45000	5515
1.45833	5583
1.46667	5654
1.47500	5727
1.48333	5802
1.49167	5879
1.50000	5956
1.50833	6033
1.51667	6111
1.52500	6191
1.53333	6272
1.54167	6355
1.55000	6438
1.55833	6520
1.56667	6600
1.57500	6678
1.58333	6757
1.59167	6836
1.60000	6910
1.60833	6979
1.61667	7045
1.62500	7106
1.63333	7165
1.64167	7220
1.65000	7272
1.65833	7318
1.66667	7359
1.67500	7396
1.68333	7427
1.69167	7454
1.70000	7475
1.70833	7492
1.71667	7504
1.72500	7511
1.73333	7513
1.74167	7511
1.75000	7503
1.75833	7488
1.76667	7468
1.77500	7443
1.78333	7415
1.79167	7385
1.80000	7352
1.80833	7312
1.81667	7266
1.82500	7219
1.83333	7170
1.84167	7121
1.85000	7071
1.85833	7020
1.86667	6967
1.87500	6909
1.88333	6847
1.89167	6784
1.90000	6723
1.90833	6664
1.91667	6606
1.92500	6548
1.93333	6490
1.94167	6432
1.95000	6372
1.95833	6309
1.96667	6247
1.97500	6188
1.98333	6133
1.99167	6080
2.00000	6027
2.00833	5975
2.01667	5922
2.02500	5869
2.03333	5819
2.04167	5771
2.05000	5725
2.05833	5681
2.06667	5639
2.07500	5598
2.08333	5556
2.09167	5515
2.10000	5475
2.10833	5436
2.11667	5397
2.12500	5362
2.13333	5331
2.14167	5302
2.15000	5273
2.15833	5244
2.16667	5215
2.17500	5188
2.18333	5163
2.19167	5139
2.20000	5114
2.20833	5090
2.21667	5067
2.22500	5047
2.23333	5030
2.24167	5013
2.25000	4996
2.25833	4982
2.26667	4977
2.27500	4992
2.28333	5022
2.29167	5043
2.30000	5038
2.30833	5011
2.31667	4975
2.32500	4939
2.33333	4907
2.34167	4882
2.35000	4862
2.35833	4847
2.36667	4835
2.37500	4824
2.38333	4814
2.39167	4806
2.40000	4802
2.40833	4802
2.41667	4800
2.42500	4793
2.43333	4784
2.44167	4776
2.45000	4768
2.45833	4759
2.46667	4753
2.47500	4748
2.48333	4744
2.49167	4739
2.50000	4732
2.50833	4726
2.51667	4721
2.52500	4718
2.53333	4713
2.54167	4708
2.55000	4704
2.55833	4701
2.56667	4698
2.57500	4696
2.58333	4696
2.59167	4694
2.60000	4690
2.60833	4688
2.61667	4686
2.62500	4685
2.63333	4685
2.64167	4685
2.65000	4684
2.65833	4683
2.66667	4683
2.67500	4684
2.68333	4685
2.69167	4684
2.70000	4684
2.70833	4683
2.71667	4682
2.72500	4681
2.73333	4679
2.74167	4677
2.75000	4677
2.75833	4678
2.76667	4681
2.77500	4685
2.78333	4690
2.79167	4693
2.80000	4695
2.80833	4697
2.81667	4698
2.82500	4699
2.83333	4704
2.84167	4709
2.85000	4712
2.85833	4712
2.86667	4711
2.87500	4711
2.88333	4710
2.89167	4710
2.90000	4710
2.90833	4711
2.91667	4713
2.92500	4714
2.93333	4715
2.94167	4717
2.95000	4720
2.95833	4724
2.96667	4731
2.97500	4741
2.98333	4755
2.99167	4768
3.00000	4774
3.00833	4770
3.01667	4764
3.02500	4758
3.03333	4753
3.04167	4748
3.05000	4745
3.05833	4743
3.06667	4742
3.07500	4743
3.08333	4745
3.09167	4749
3.10000	4750
3.10833	4750
3.11667	4749
3.12500	4749
3.13333	4751
3.14167	4754
3.15000	4755
3.15833	4754
3.16667	4754
3.17500	4754
3.18333	4753
3.19167	4755
3.20000	4760
3.20833	4763
3.21667	4766
3.22500	4770
3.23333	4772
3.24167	4771
3.25000	4767
3.25833	4763
3.26667	4760
3.27500	4759
3.28333	4758
3.29167	4758
3.30000	4760
3.30833	4762
3.31667	4763
3.32500	4766
3.33333	4770
3.34167	4771
3.35000	4770
3.35833	4768
3.36667	4766
3.37500	4766
3.38333	4766
3.39167	4767
3.40000	4768
3.40833	4769
3.41667	4772
3.42500	4776
3.43333	4781
3.44167	4789
3.45000	4796
3.45833	4800
3.46667	4802
3.47500	4803
3.48333	4805
3.49167	4808
3.50000	4809
3.50833	4808
3.51667	4805
3.52500	4804
3.53333	4805
3.54167	4809
3.55000	4816
3.55833	4822
3.56667	4825
3.57500	4826
3.58333	4826
3.59167	4825
3.60000	4823
3.60833	4824
3.61667	4828
3.62500	4838
3.63333	4854
3.64167	4870
3.65000	4878
3.65833	4878
3.66667	4874
3.67500	4869
3.68333	4865
3.69167	4863
3.70000	4862
3.70833	4861
3.71667	4860
3.72500	4861
3.73333	4862
3.74167	4862
3.75000	4862
3.75833	4863
3.76667	4864
3.77500	4864
3.78333	4865
3.79167	4867
3.80000	4870
3.80833	4871
3.81667	4869
3.82500	4867
3.83333	4865
3.84167	4865
3.85000	4865
3.85833	4866
3.86667	4867
3.87500	4868
3.88333	4869
3.89167	4869
3.90000	4868
3.90833	4868
3.91667	4870
3.92500	4870
3.93333	4868
3.94167	4866
3.95000	4862
3.95833	4858
3.96667	4857
3.97500	4857
3.98333	4857
3.99167	4855
4.00000	4854
4.00833	4852
4.01667	4852
4.02500	4852
4.03333	4852
4.04167	4854
4.05000	4856
4.05833	4857
4.06667	4857
4.07500	4858
4.08333	4861
4.09167	4865
4.10000	4867
4.10833	4870
4.11667	4875
4.12500	4882
4.13333	4889
4.14167	4897
4.15000	4908
4.15833	4922
4.16667	4938
4.17500	4955
4.18333	4976
4.19167	5001
4.20000	5026
4.20833	5051
4.21667	5076
4.22500	5104
4.23333	5136
4.24167	5174
4.25000	5218
4.25833	5268
4.26667	5325
4.27500	5392
4.28333	5471
4.29167	5565
4.30000	5678
4.30833	5818
4.31667	5987
4.32500	6189
4.33333	6425
4.34167	6696
4.35000	7004
4.35833	7348
4.36667	7727
4.37500	8140
4.38333	8586
4.39167	9059
4.40000	9553
4.40833	10063
4.41667	10584
4.42500	11114
4.43333	11649
4.44167	12188
4.45000	12725
4.45833	13260
4.46667	13791
4.47500	14313
4.48333	14823
4.49167	15319
4.50000	15802
4.50833	16264
4.51667	16692
4.52500	17087
4.53333	17453
4.54167	17793
4.55000	18102
4.55833	18378
4.56667	18620
4.57500	18825
4.58333	18986
4.59167	19102
4.60000	19176
4.60833	19210
4.61667	19212
4.62500	19186
4.63333	19138
4.64167	19071
4.65000	18979
4.65833	18858
4.66667	18711
4.67500	18545
4.68333	18364
4.69167	18171
4.70000	17968
4.70833	17759
4.71667	17546
4.72500	17331
4.73333	17115
4.74167	16900
4.75000	16688
4.75833	16480
4.76667	16279
4.77500	16088
4.78333	15905
4.79167	15726
4.80000	15552
4.80833	15385
4.81667	15229
4.82500	15083
4.83333	14943
4.84167	14809
4.85000	14682
4.85833	14558
4.86667	14438
4.87500	14328
4.88333	14227
4.89167	14135
4.90000	14049
4.90833	13965
4.91667	13886
4.92500	13814
4.93333	13754
4.94167	13707
4.95000	13669
4.95833	13635
4.96667	13602
4.97500	13569
4.98333	13534
4.99167	13502
5.00000	13478
5.00833	13461
5.01667	13449
5.02500	13441
5.03333	13440
5.04167	13444
5.05000	13455
5.05833	13469
5.06667	13489
5.07500	13513
5.08333	13540
5.09167	13573
5.10000	13614
5.10833	13663
5.11667	13718
5.12500	13775
5.13333	13836
5.14167	13902
5.15000	13975
5.15833	14053
5.16667	14137
5.17500	14224
5.18333	14317
5.19167	14414
5.20000	14513
5.20833	14614
5.21667	14718
5.22500	14824
5.23333	14933
5.24167	15046
5.25000	15165
5.25833	15288
5.26667	15416
5.27500	15551
5.28333	15689
5.29167	15829
5.30000	15970
5.30833	16112
5.31667	16259
5.32500	16415
5.33333	16578
5.34167	16746
5.35000	16915
5.35833	17083
5.36667	17250
5.37500	17418
5.38333	17591
5.39167	17771
5.40000	17957
5.40833	18143
5.41667	18330
5.42500	18519
5.43333	18714
5.44167	18914
5.45000	19117
5.45833	19322
5.46667	19531
5.47500	19741
5.48333	19954
5.49167	20173
5.50000	20401
5.50833	20634
5.51667	20873
5.52500	21115
5.53333	21364
5.54167	21620
5.55000	21885
5.55833	22158
5.56667	22439
5.57500	22729
5.58333	23026
5.59167	23333
5.60000	23651
5.60833	23976
5.61667	24305
5.62500	24639
5.63333	24975
5.64167	25314
5.65000	25652
5.65833	25990
5.66667	26325
5.67500	26657
5.68333	26986
5.69167	27312
5.70000	27637
5.70833	27959
5.71667	28279
5.72500	28597
5.73333	28914
5.74167	29227
5.75000	29533
5.75833	29832
5.76667	30125
5.77500	30418
5.78333	30716
5.79167	31031
5.80000	31384
5.80833	31802
5.81667	32321
5.82500	32982
5.83333	33827
5.84167	34881
5.85000	36146
5.85833	37587
5.86667	39130
5.87500	40662
5.88333	42046
5.89167	43144
5.90000	43840
5.90833	44067
5.91667	43808
5.92500	43101
5.93333	42018
5.94167	40647
5.95000	39087
5.95833	37437
5.96667	35782
5.97500	34197
5.98333	32739
5.99167	31452
6.00000	30370
6.00833	29518
6.01667	28919
6.02500	28588
6.03333	28529
6.04167	28749
6.05000	29256
6.05833	30063
6.06667	31181
6.07500	32623
6.08333	34406
6.09167	36545
6.10000	39042
6.10833	41892
6.11667	45085
6.12500	48605
6.13333	52423
6.14167	56504
6.15000	60799
6.15833	65250
6.16667	69795
6.17500	74385
6.18333	78975
6.19167	83521
6.20000	87992
6.20833	92369
6.21667	96633
6.22500	100764
6.23333	104750
6.24167	108586
6.25000	112283
6.25833	115890
6.26667	119658
6.27500	124426
6.28333	131031
6.29167	137817
6.30000	140212
6.30833	134746
6.31667	121989
6.32500	105129
6.33333	87372
6.34167	70748
6.35000	56150
6.35833	43804
6.36667	33642
6.37500	25471
6.38333	19039
6.39167	14078
6.40000	10322
6.40833	7521
6.41667	5458
6.42500	3961
6.43333	2885
6.44167	2102
6.45000	1522
6.45833	1086
6.46667	759
6.47500	514
6.48333	333
6.49167	199
6.50000	101
6.50833	30
6.51667	-22
6.52500	-61
6.53333	-88
6.54167	-106
6.55000	-117
6.55833	-124
6.56667	-124
6.57500	-116
6.58333	-100
6.59167	-78
6.60000	-52
6.60833	-24
6.61667	7
6.62500	42
6.63333	82
6.64167	128
6.65000	178
6.65833	231
6.66667	288
6.67500	348
6.68333	410
6.69167	474
6.70000	539
6.70833	606
6.71667	677
6.72500	751
6.73333	828
6.74167	908
6.75000	989
6.75833	1071
6.76667	1157
6.77500	1246
6.78333	1336
6.79167	1429
6.80000	1523
6.80833	1620
6.81667	1719
6.82500	1820
6.83333	1925
6.84167	2033
6.85000	2142
6.85833	2254
6.86667	2369
6.87500	2485
6.88333	2599
6.89167	2714
6.90000	2833
6.90833	2953
6.91667	3075
6.92500	3198
6.93333	3326
6.94167	3458
6.95000	3592
6.95833	3730
6.96667	3873
6.97500	4021
6.98333	4173
6.99167	4323
7.00000	4470
7.00833	4619
7.01667	4769
7.02500	4921
7.03333	5073
7.04167	5223
7.05000	5371
7.05833	5519
7.06667	5668
7.07500	5818
7.08333	5965
7.09167	6107
7.10000	6247
7.10833	6386
7.11667	6524
7.12500	6663
7.13333	6803
7.14167	6939
7.15000	7070
7.15833	7200
7.16667	7328
7.17500	7453
7.18333	7576
7.19167	7700
7.20000	7823
7.20833	7943
7.21667	8060
7.22500	8172
7.23333	8280
7.24167	8384
7.25000	8481
7.25833	8573
7.26667	8659
7.27500	8733
7.28333	8799
7.29167	8857
7.30000	8908
7.30833	8951
7.31667	8989
7.32500	9023
7.33333	9055
7.34167	9083
7.35000	9104
7.35833	9123
7.36667	9139
7.37500	9151
7.38333	9163
7.39167	9175
7.40000	9184
7.40833	9190
7.41667	9194
7.42500	9195
7.43333	9191
7.44167	9185
7.45000	9177
7.45833	9167
7.46667	9155
7.47500	9142
7.48333	9127
7.49167	9113
7.50000	9099
7.50833	9080
7.51667	9057
7.52500	9032
7.53333	9006
7.54167	8979
7.55000	8953
7.55833	8929
7.56667	8908
7.57500	8884
7.58333	8859
7.59167	8831
7.60000	8801
7.60833	8772
7.61667	8745
7.62500	8719
7.63333	8694
7.64167	8668
7.65000	8642
7.65833	8620
7.66667	8602
7.67500	8585
7.68333	8571
7.69167	8561
7.70000	8554
7.70833	8547
7.71667	8542
7.72500	8538
7.73333	8534
7.74167	8531
7.75000	8533
7.75833	8543
7.76667	8558
7.77500	8565
7.78333	8565
7.79167	8564
7.80000	8564
7.80833	8566
7.81667	8569
7.82500	8576
7.83333	8584
7.84167	8594
7.85000	8606
7.85833	8618
7.86667	8631
7.87500	8643
7.88333	8659
7.89167	8680
7.90000	8714
7.90833	8778
7.91667	8871
7.92500	8962
7.93333	9020
7.94167	9038
7.95000	9031
7.95833	9019
7.96667	9014
7.97500	9020
7.98333	9036
7.99167	9057
8.00000	9079
8.00833	9098
8.01667	9117
8.02500	9140
8.03333	9165
8.04167	9195
8.05000	9231
8.05833	9270
8.06667	9306
8.07500	9334
8.08333	9352
8.09167	9367
8.10000	9380
8.10833	9393
8.11667	9407
8.12500	9423
8.13333	9443
8.14167	9468
8.15000	9498
8.15833	9531
8.16667	9563
8.17500	9587
8.18333	9604
8.19167	9618
8.20000	9631
8.20833	9645
8.21667	9659
8.22500	9672
8.23333	9686
8.24167	9701
8.25000	9717
8.25833	9735
8.26667	9754
8.27500	9774
8.28333	9794
8.29167	9813
8.30000	9833
8.30833	9856
8.31667	9880
8.32500	9903
8.33333	9923
8.34167	9943
8.35000	9964
8.35833	9984
8.36667	10001
8.37500	10012
8.38333	10017
8.39167	10020
8.40000	10022
8.40833	10023
8.41667	10020
8.42500	10015
8.43333	10011
8.44167	10008
8.45000	10008
8.45833	10005
8.46667	10000
8.47500	9996
8.48333	9993
8.49167	9991
8.50000	9992
8.50833	9993
8.51667	9992
8.52500	9990
8.53333	9988
8.54167	9985
8.55000	9983
8.55833	9984
8.56667	9988
8.57500	9994
8.58333	10000
8.59167	10004
8.60000	10006
8.60833	10007
8.61667	10008
8.62500	10008
8.63333	10008
8.64167	10010
8.65000	10013
8.65833	10012
8.66667	10009
8.67500	10004
8.68333	9999
8.69167	9998
8.70000	10001
8.70833	10011
8.71667	10035
8.72500	10069
8.73333	10098
8.74167	10103
8.75000	10086
8.75833	10055
8.76667	10021
8.77500	9988
8.78333	9958
8.79167	9931
8.80000	9906
8.80833	9884
8.81667	9865
8.82500	9846
8.83333	9826
8.84167	9805
8.85000	9782
8.85833	9755
8.86667	9724
8.87500	9690
8.88333	9652
8.89167	9613
8.90000	9573
8.90833	9530
8.91667	9483
8.92500	9431
8.93333	9376
8.94167	9320
8.95000	9262
8.95833	9202
8.96667	9140
8.97500	9078
8.98333	9013
8.99167	8946
9.00000	8875
9.00833	8802
9.01667	8728
9.02500	8655
9.03333	8583
9.04167	8508
9.05000	8434
9.05833	8360
9.06667	8286
9.07500	8213
9.08333	8142
9.09167	8076
9.10000	8012
9.10833	7949
9.11667	7887
9.12500	7822
9.13333	7756
9.14167	7688
9.15000	7622
9.15833	7558
9.16667	7496
9.17500	7437
9.18333	7381
9.19167	7325
9.20000	7269
9.20833	7212
9.21667	7157
9.22500	7104
9.23333	7053
9.24167	7001
9.25000	6947
9.25833	6894
9.26667	6844
9.27500	6798
9.28333	6754
9.29167	6709
9.30000	6664
9.30833	6618
9.31667	6570
9.32500	6522
9.33333	6474
9.34167	6428
9.35000	6383
9.35833	6338
9.36667	6291
9.37500	6245
9.38333	6200
9.39167	6159
9.40000	6116
9.40833	6071
9.41667	6025
9.42500	5980
9.43333	5940
9.44167	5902
9.45000	5864
9.45833	5826
9.46667	5787
9.47500	5746
9.48333	5709
9.49167	5675
9.50000	5642
9.50833	5609
9.51667	5577
9.52500	5547
9.53333	5517
9.54167	5489
9.55000	5462
9.55833	5436
9.56667	5413
9.57500	5391
9.58333	5368
9.59167	5343
9.60000	5319
9.60833	5295
9.61667	5270
9.62500	5246
9.63333	5223
9.64167	5203
9.65000	5185
9.65833	5166
9.66667	5144
9.67500	5124
9.68333	5104
9.69167	5085
9.70000	5065
9.70833	5044
9.71667	5024
9.72500	5005
9.73333	4987
9.74167	4970
9.75000	4951
9.75833	4932
9.76667	4912
9.77500	4895
9.78333	4878
9.79167	4860
9.80000	4841
9.80833	4820
9.81667	4798
9.82500	4778
9.83333	4758
9.84167	4737
9.85000	4718
9.85833	4700
9.86667	4684
9.87500	4666
9.88333	4647
9.89167	4629
9.90000	4612
9.90833	4597
9.91667	4585
9.92500	4575
9.93333	4563
9.94167	4546
9.95000	4526
9.95833	4506
9.96667	4487
9.97500	4472
9.98333	4458
9.99167	4443
10.00000	4426
10.00833	4411
10.01667	4397
10.02500	4383
10.03333	4369
10.04167	4355
10.05000	4340
10.05833	4325
10.06667	4312
10.07500	4300
10.08333	4288
10.09167	4275
10.10000	4260
10.10833	4245
10.11667	4231
10.12500	4220
10.13333	4208
10.14167	4194
10.15000	4179
10.15833	4165
10.16667	4152
10.17500	4139
10.18333	4126
10.19167	4110
10.20000	4094
10.20833	4080
10.21667	4065
10.22500	4050
10.23333	4033
10.24167	4018
10.25000	4005
10.25833	3994
10.26667	3982
10.27500	3967
10.28333	3950
10.29167	3932
10.30000	3914
10.30833	3897
10.31667	3883
10.32500	3873
10.33333	3863
10.34167	3850
10.35000	3831
10.35833	3811
10.36667	3794
10.37500	3776
10.38333	3756
10.39167	3734
10.40000	3714
10.40833	3696
10.41667	3677
10.42500	3659
10.43333	3641
10.44167	3624
10.45000	3606
10.45833	3590
10.46667	3577
10.47500	3563
10.48333	3546
10.49167	3523
10.50000	3499
10.50833	3475
10.51667	3451
10.52500	3428
10.53333	3406
10.54167	3383
10.55000	3363
10.55833	3344
10.56667	3324
10.57500	3303
10.58333	3283
10.59167	3261
10.60000	3236
10.60833	3212
10.61667	3190
10.62500	3171
10.63333	3151
10.64167	3130
10.65000	3107
10.65833	3083
10.66667	3060
10.67500	3036
10.68333	3012
10.69167	2989
10.70000	2967
10.70833	2950
10.71667	2940
10.72500	2931
10.73333	2914
10.74167	2886
10.75000	2852
10.75833	2816
10.76667	2782
10.77500	2750
10.78333	2719
10.79167	2688
10.80000	2657
10.80833	2627
10.81667	2601
10.82500	2574
10.83333	2545
10.84167	2516
10.85000	2488
10.85833	2463
10.86667	2439
10.87500	2416
10.88333	2394
10.89167	2377
10.90000	2364
10.90833	2349
10.91667	2329
10.92500	2306
10.93333	2287
10.94167	2271
10.95000	2252
10.95833	2227
10.96667	2199
10.97500	2166
10.98333	2131
10.99167	2095
11.00000	2064
11.00833	2038
11.01667	2013
11.02500	1989
11.03333	1966
11.04167	1945
11.05000	1927
11.05833	1912
11.06667	1898
11.07500	1881
11.08333	1859
11.09167	1832
11.10000	1801
11.10833	1771
11.11667	1745
11.12500	1722
11.13333	1700
11.14167	1677
11.15000	1655
11.15833	1636
11.16667	1622
11.17500	1611
11.18333	1602
11.19167	1593
11.20000	1585
11.20833	1577
11.21667	1570
11.22500	1563
11.23333	1558
11.24167	1552
11.25000	1547
11.25833	1544
11.26667	1541
11.27500	1537
11.28333	1533
11.29167	1530
11.30000	1529
11.30833	1527
11.31667	1523
11.32500	1519
11.33333	1519
11.34167	1523
11.35000	1529
11.35833	1536
11.36667	1540
11.37500	1538
11.38333	1534
11.39167	1530
11.40000	1526
11.40833	1522
11.41667	1520
11.42500	1518
11.43333	1519
11.44167	1525
11.45000	1537
11.45833	1551
11.46667	1562
11.47500	1566
11.48333	1562
11.49167	1556
11.50000	1556
11.50833	1569
11.51667	1588
11.52500	1603
11.53333	1608
11.54167	1605
11.55000	1594
11.55833	1583
11.56667	1574
11.57500	1568
11.58333	1564
11.59167	1559
11.60000	1558
11.60833	1556
11.61667	1552
11.62500	1546
11.63333	1543
11.64167	1542
11.65000	1544
11.65833	1545
11.66667	1545
11.67500	1547
11.68333	1550
11.69167	1561
11.70000	1583
11.70833	1612
11.71667	1638
11.72500	1657
11.73333	1662
11.74167	1655
11.75000	1642
11.75833	1626
11.76667	1611
11.77500	1598
11.78333	1588
11.79167	1579
11.80000	1573
11.80833	1571
11.81667	1573
11.82500	1580
11.83333	1592
11.84167	1603
11.85000	1607
11.85833	1606
11.86667	1602
11.87500	1597
11.88333	1593
11.89167	1589
11.90000	1585
11.90833	1581
11.91667	1577
11.92500	1575
11.93333	1574
11.94167	1572
11.95000	1571
11.95833	1571
11.96667	1571
11.97500	1571
11.98333	1571
11.99167	1572
12.00000	1575
12.00833	1579
12.01667	1582
12.02500	1581
12.03333	1578
12.04167	1577
12.05000	1577
12.05833	1577
12.06667	1577
12.07500	1577
12.08333	1578
12.09167	1579
12.10000	1580
12.10833	1581
12.11667	1583
12.12500	1583
12.13333	1583
12.14167	1586
12.15000	1587
12.15833	1587
12.16667	1588
12.17500	1590
12.18333	1592
12.19167	1593
12.20000	1592
12.20833	1590
12.21667	1591
12.22500	1593
12.23333	1593
12.24167	1593
12.25000	1594
12.25833	1597
12.26667	1601
12.27500	1604
12.28333	1608
12.29167	1612
12.30000	1615
12.30833	1617
12.31667	1617
12.32500	1616
12.33333	1615
12.34167	1615
12.35000	1617
12.35833	1620
12.36667	1624
12.37500	1627
12.38333	1631
12.39167	1637
12.40000	1644
12.40833	1653
12.41667	1661
12.42500	1663
12.43333	1659
12.44167	1652
12.45000	1644
12.45833	1640
12.46667	1638
12.47500	1638
12.48333	1640
12.49167	1643
12.50000	1646
12.50833	1649
12.51667	1652
12.52500	1655
12.53333	1658
12.54167	1658
12.55000	1657
12.55833	1657
12.56667	1655
12.57500	1653
12.58333	1650
12.59167	1649
12.60000	1650
12.60833	1652
12.61667	1654
12.62500	1654
12.63333	1652
12.64167	1650
12.65000	1650
12.65833	1650
12.66667	1651
12.67500	1653
12.68333	1655
12.69167	1656
12.70000	1657
12.70833	1661
12.71667	1664
12.72500	1665
12.73333	1667
12.74167	1671
12.75000	1672
12.75833	1671
12.76667	1670
12.77500	1670
12.78333	1670
12.79167	1670
12.80000	1670
12.80833	1671
12.81667	1675
12.82500	1679
12.83333	1684
12.84167	1695
12.85000	1715
12.85833	1757
12.86667	1826
12.87500	1896
12.88333	1927
12.89167	1913
12.90000	1874
12.90833	1831
12.91667	1792
12.92500	1762
12.93333	1741
12.94167	1726
12.95000	1717
12.95833	1710
12.96667	1704
12.97500	1700
12.98333	1703
12.99167	1712
13.00000	1724
13.00833	1737
13.01667	1749
13.02500	1768
13.03333	1794
13.04167	1817
13.05000	1822
13.05833	1809
13.06667	1785
13.07500	1760
13.08333	1735
13.09167	1710
13.10000	1683
13.10833	1657
13.11667	1633
13.12500	1615
13.13333	1603
13.14167	1592
13.15000	1582
13.15833	1576
13.16667	1574
13.17500	1577
13.18333	1583
13.19167	1592
13.20000	1601
13.20833	1614
13.21667	1630
13.22500	1646
13.23333	1664
13.24167	1682
13.25000	1701
13.25833	1721
13.26667	1738
13.27500	1754
13.28333	1770
13.29167	1786
13.30000	1800
13.30833	1813
13.31667	1824
13.32500	1834
13.33333	1845
13.34167	1859
13.35000	1876
13.35833	1894
13.36667	1908
13.37500	1915
13.38333	1917
13.39167	1919
13.40000	1925
13.40833	1933
13.41667	1942
13.42500	1950
13.43333	1957
13.44167	1962
13.45000	1967
13.45833	1971
13.46667	1976
13.47500	1981
13.48333	1985
13.49167	1987
13.50000	1989
13.50833	1990
13.51667	1989
13.52500	1988
13.53333	1987
13.54167	1988
13.55000	1990
13.55833	1990
13.56667	1985
13.57500	1979
13.58333	1973
13.59167	1969
13.60000	1966
13.60833	1962
13.61667	1963
13.62500	1968
13.63333	1975
13.64167	1980
13.65000	1981
13.65833	1977
13.66667	1972
13.67500	1969
13.68333	1968
13.69167	1967
13.70000	1966
13.70833	1965
13.71667	1963
13.72500	1961
13.73333	1956
13.74167	1952
13.75000	1949
13.75833	1945
13.76667	1937
13.77500	1928
13.78333	1917
13.79167	1905
13.80000	1893
13.80833	1882
13.81667	1872
13.82500	1862
13.83333	1854
13.84167	1849
13.85000	1844
13.85833	1838
13.86667	1833
13.87500	1828
13.88333	1824
13.89167	1822
13.90000	1818
13.90833	1813
13.91667	1809
13.92500	1807
13.93333	1806
13.94167	1805
13.95000	1804
13.95833	1803
13.96667	1802
13.97500	1799
13.98333	1797
13.99167	1795
14.00000	1795
14.00833	1796
14.01667	1798
14.02500	1801
14.03333	1803
14.04167	1803
14.05000	1805
14.05833	1807
14.06667	1809
14.07500	1813
14.08333	1818
14.09167	1822
14.10000	1823
14.10833	1822
14.11667	1820
14.12500	1820
14.13333	1824
14.14167	1829
14.15000	1832
14.15833	1832
14.16667	1830
14.17500	1832
14.18333	1836
14.19167	1837
14.20000	1834
14.20833	1831
14.21667	1829
14.22500	1827
14.23333	1825
14.24167	1824
14.25000	1826
14.25833	1830
14.26667	1837
14.27500	1846
14.28333	1856
14.29167	1866
14.30000	1871
14.30833	1871
14.31667	1871
14.32500	1869
14.33333	1864
14.34167	1861
14.35000	1864
14.35833	1875
14.36667	1892
14.37500	1908
14.38333	1913
14.39167	1908
14.40000	1897
14.40833	1883
14.41667	1870
14.42500	1860
14.43333	1856
14.44167	1856
14.45000	1856
14.45833	1857
14.46667	1861
14.47500	1866
14.48333	1869
14.49167	1870
14.50000	1870
14.50833	1867
14.51667	1866
14.52500	1867
14.53333	1872
14.54167	1878
14.55000	1886
14.55833	1893
14.56667	1897
14.57500	1897
14.58333	1896
14.59167	1893
14.60000	1889
14.60833	1887
14.61667	1888
14.62500	1887
14.63333	1884
14.64167	1880
14.65000	1879
14.65833	1879
14.66667	1879
14.67500	1877
14.68333	1873
14.69167	1869
14.70000	1868
14.70833	1876
14.71667	1897
14.72500	1922
14.73333	1939
14.74167	1941
14.75000	1933
14.75833	1922
14.76667	1911
14.77500	1903
14.78333	1898
14.79167	1896
14.80000	1897
14.80833	1905
14.81667	1915
14.82500	1923
14.83333	1922
14.84167	1917
14.85000	1913
14.85833	1909
14.86667	1905
14.87500	1902
14.88333	1900
14.89167	1902
14.90000	1909
14.90833	1921
14.91667	1930
14.92500	1933
14.93333	1931
14.94167	1928
14.95000	1928
14.95833	1931
14.96667	1930
14.97500	1927
14.98333	1925
14.99167	1924
15.00000	1924
15.00833	1924
15.01667	1923
15.02500	1920
15.03333	1917
15.04167	1916
15.05000	1916
15.05833	1916
15.06667	1924
15.07500	1943
15.08333	1965
15.09167	1979
15.10000	1982
15.10833	1977
15.11667	1966
15.12500	1955
15.13333	1948
15.14167	1941
15.15000	1936
15.15833	1932
15.16667	1928
15.17500	1923
15.18333	1920
15.19167	1921
15.20000	1925
15.20833	1927
15.21667	1925
15.22500	1920
15.23333	1914
15.24167	1910
15.25000	1906
15.25833	1901
15.26667	1899
15.27500	1899
15.28333	1900
15.29167	1901
15.30000	1904
15.30833	1908
15.31667	1911
15.32500	1919
15.33333	1936
15.34167	1960
15.35000	1976
15.35833	1980
15.36667	1979
15.37500	1976
15.38333	1973
15.39167	1969
15.40000	1962
15.40833	1952
15.41667	1944
15.42500	1937
15.43333	1930
15.44167	1924
15.45000	1919
15.45833	1914
15.46667	1911
15.47500	1907
15.48333	1903
15.49167	1899
15.50000	1896
15.50833	1893
15.51667	1891
15.52500	1891
15.53333	1890
15.54167	1890
15.55000	1891
15.55833	1892
15.56667	1894
15.57500	1897
15.58333	1900
15.59167	1901
15.60000	1901
15.60833	1899
15.61667	1896
15.62500	1894
15.63333	1892
15.64167	1891
15.65000	1891
15.65833	1893
15.66667	1892
15.67500	1890
15.68333	1888
15.69167	1887
15.70000	1889
15.70833	1894
15.71667	1899
15.72500	1900
15.73333	1900
15.74167	1898
15.75000	1896
15.75833	1896
15.76667	1898
15.77500	1903
15.78333	1908
15.79167	1912
15.80000	1914
15.80833	1911
15.81667	1906
15.82500	1903
15.83333	1901
15.84167	1900
15.85000	1897
15.85833	1894
15.86667	1892
15.87500	1893
15.88333	1900
15.89167	1919
15.90000	1953
15.90833	1994
15.91667	2026
15.92500	2035
15.93333	2024
15.94167	2001
15.95000	1976
15.95833	1953
15.96667	1933
15.97500	1918
15.98333	1908
15.99167	1901
16.00000	1897
16.00833	1891
16.01667	1888
16.02500	1888
16.03333	1892
16.04167	1892
16.05000	1892
16.05833	1893
16.06667	1893
16.07500	1893
16.08333	1895
16.09167	1899
16.10000	1904
16.10833	1910
16.11667	1916
16.12500	1924
16.13333	1936
16.14167	1950
16.15000	1958
16.15833	1955
16.16667	1945
16.17500	1932
16.18333	1921
16.19167	1912
16.20000	1906
16.20833	1901
16.21667	1897
16.22500	1894
16.23333	1894
16.24167	1893
16.25000	1892
16.25833	1891
16.26667	1893
16.27500	1894
16.28333	1895
16.29167	1896
16.30000	1897
16.30833	1895
16.31667	1892
16.32500	1889
16.33333	1887
16.34167	1885
16.35000	1884
16.35833	1884
16.36667	1885
16.37500	1885
16.38333	1884
16.39167	1885
16.40000	1891
16.40833	1904
16.41667	1916
16.42500	1922
16.43333	1920
16.44167	1911
16.45000	1905
16.45833	1908
16.46667	1920
16.47500	1932
16.48333	1940
16.49167	1947
16.50000	1953
16.50833	1954
16.51667	1949
16.52500	1940
16.53333	1931
16.54167	1924
16.55000	1920
16.55833	1918
16.56667	1918
16.57500	1919
16.58333	1921
16.59167	1925
16.60000	1929
16.60833	1932
16.61667	1933
16.62500	1932
16.63333	1931
16.64167	1932
16.65000	1934
16.65833	1934
16.66667	1932
16.67500	1929
16.68333	1926
16.69167	1923
16.70000	1923
16.70833	1925
16.71667	1927
16.72500	1931
16.73333	1933
16.74167	1935
16.75000	1934
16.75833	1928
16.76667	1921
16.77500	1914
16.78333	1911
16.79167	1908
16.80000	1907
16.80833	1906
16.81667	1904
16.82500	1902
16.83333	1902
16.84167	1903
16.85000	1906
16.85833	1909
16.86667	1912
16.87500	1911
16.88333	1909
16.89167	1907
16.90000	1906
16.90833	1903
16.91667	1900
16.92500	1899
16.93333	1900
16.94167	1902
16.95000	1901
16.95833	1899
16.96667	1897
16.97500	1896
16.98333	1894
16.99167	1892
17.00000	1891
17.00833	1890
17.01667	1891
17.02500	1894
17.03333	1897
17.04167	1899
17.05000	1902
17.05833	1905
17.06667	1909
17.07500	1914
17.08333	1919
17.09167	1923
17.10000	1925
17.10833	1925
17.11667	1924
17.12500	1924
17.13333	1926
17.14167	1926
17.15000	1927
17.15833	1930
17.16667	1931
17.17500	1931
17.18333	1928
17.19167	1924
17.20000	1920
17.20833	1916
17.21667	1914
17.22500	1914
17.23333	1913
17.24167	1909
17.25000	1904
17.25833	1900
17.26667	1898
17.27500	1899
17.28333	1902
17.29167	1908
17.30000	1917
17.30833	1930
17.31667	1940
17.32500	1942
17.33333	1936
17.34167	1927
17.35000	1917
17.35833	1907
17.36667	1900
17.37500	1898
17.38333	1897
17.39167	1894
17.40000	1890
17.40833	1887
17.41667	1887
17.42500	1889
17.43333	1892
17.44167	1897
17.45000	1906
17.45833	1917
17.46667	1922
17.47500	1922
17.48333	1918
17.49167	1914
17.50000	1911
17.50833	1910
17.51667	1910
17.52500	1910
17.53333	1909
17.54167	1908
17.55000	1908
17.55833	1908
17.56667	1908
17.57500	1907
17.58333	1909
17.59167	1912
17.60000	1915
17.60833	1918
17.61667	1920
17.62500	1920
17.63333	1920
17.64167	1920
17.65000	1920
17.65833	1922
17.66667	1925
17.67500	1926
17.68333	1925
17.69167	1923
17.70000	1923
17.70833	1924
17.71667	1923
17.72500	1921
17.73333	1917
17.74167	1914
17.75000	1911
17.75833	1909
17.76667	1908
17.77500	1911
17.78333	1917
17.79167	1922
17.80000	1921
17.80833	1915
17.81667	1909
17.82500	1905
17.83333	1903
17.84167	1903
17.85000	1903
17.85833	1900
17.86667	1897
17.87500	1896
17.88333	1895
17.89167	1894
17.90000	1894
17.90833	1895
17.91667	1896
17.92500	1896
17.93333	1895
17.94167	1893
17.95000	1893
17.95833	1892
17.96667	1893
17.97500	1894
17.98333	1897
17.99167	1898
18.00000	1898

[LC Chromatogram(Detector B-Ch1)]
Interval(msec)	500
# of Points	2161
Start Time(min)	0.000
End Time(min)	18.000
Intensity Units	uRIU
Intensity Multiplier	0.001
R.Time (min)	Intensity
0.00000	382
0.00833	382
0.01667	380
0.02500	378
0.03333	376
0.04167	375
0.05000	375
0.05833	375
0.06667	374
0.07500	374
0.08333	373
0.09167	374
0.10000	374
0.10833	376
0.11667	378
0.12500	379
0.13333	381
0.14167	383
0.15000	384
0.15833	386
0.16667	388
0.17500	390
0.18333	392
0.19167	394
0.20000	395
0.20833	397
0.21667	399
0.22500	401
0.23333	404
0.24167	408
0.25000	410
0.25833	413
0.26667	416
0.27500	418
0.28333	421
0.29167	423
0.30000	425
0.30833	427
0.31667	428
0.32500	430
0.33333	432
0.34167	434
0.35000	436
0.35833	437
0.36667	439
0.37500	441
0.38333	443
0.39167	445
0.40000	447
0.40833	449
0.41667	451
0.42500	454
0.43333	456
0.44167	458
0.45000	460
0.45833	462
0.46667	465
0.47500	468
0.48333	470
0.49167	472
0.50000	475
0.50833	477
0.51667	479
0.52500	480
0.53333	481
0.54167	481
0.55000	481
0.55833	482
0.56667	482
0.57500	481
0.58333	481
0.59167	480
0.60000	479
0.60833	478
0.61667	477
0.62500	475
0.63333	473
0.64167	470
0.65000	468
0.65833	465
0.66667	462
0.67500	459
0.68333	456
0.69167	452
0.70000	448
0.70833	444
0.71667	440
0.72500	435
0.73333	430
0.74167	425
0.75000	419
0.75833	413
0.76667	407
0.77500	400
0.78333	394
0.79167	387
0.80000	381
0.80833	374
0.81667	368
0.82500	361
0.83333	355
0.84167	348
0.85000	342
0.85833	336
0.86667	331
0.87500	325
0.88333	319
0.89167	314
0.90000	309
0.90833	305
0.91667	300
0.92500	297
0.93333	293
0.94167	291
0.95000	288
0.95833	287
0.96667	286
0.97500	285
0.98333	285
0.99167	284
1.00000	285
1.00833	286
1.01667	288
1.02500	290
1.03333	292
1.04167	296
1.05000	299
1.05833	303
1.06667	306
1.07500	310
1.08333	314
1.09167	319
1.10000	323
1.10833	328
1.11667	333
1.12500	338
1.13333	342
1.14167	347
1.15000	352
1.15833	357
1.16667	362
1.17500	367
1.18333	372
1.19167	377
1.20000	382
1.20833	387
1.21667	391
1.22500	396
1.23333	400
1.24167	404
1.25000	407
1.25833	411
1.26667	414
1.27500	417
1.28333	421
1.29167	424
1.30000	427
1.30833	430
1.31667	433
1.32500	435
1.33333	438
1.34167	440
1.35000	442
1.35833	444
1.36667	446
1.37500	447
1.38333	449
1.39167	450
1.40000	451
1.40833	452
1.41667	453
1.42500	454
1.43333	456
1.44167	457
1.45000	458
1.45833	459
1.46667	460
1.47500	460
1.48333	460
1.49167	461
1.50000	461
1.50833	461
1.51667	461
1.52500	461
1.53333	462
1.54167	462
1.55000	462
1.55833	462
1.56667	462
1.57500	462
1.58333	462
1.59167	462
1.60000	462
1.60833	462
1.61667	462
1.62500	462
1.63333	462
1.64167	462
1.65000	462
1.65833	462
1.66667	462
1.67500	462
1.68333	462
1.69167	462
1.70000	462
1.70833	462
1.71667	463
1.72500	463
1.73333	463
1.74167	464
1.75000	464
1.75833	464
1.76667	463
1.77500	463
1.78333	462
1.79167	462
1.80000	462
1.80833	462
1.81667	462
1.82500	462
1.83333	462
1.84167	462
1.85000	461
1.85833	461
1.86667	460
1.87500	460
1.88333	460
1.89167	459
1.90000	459
1.90833	458
1.91667	457
1.92500	457
1.93333	457
1.94167	456
1.95000	456
1.95833	455
1.96667	455
1.97500	454
1.98333	454
1.99167	453
2.00000	452
2.00833	452
2.01667	452
2.02500	452
2.03333	452
2.04167	451
2.05000	451
2.05833	450
2.06667	450
2.07500	449
2.08333	449
2.09167	448
2.10000	446
2.10833	443
2.11667	441
2.12500	441
2.13333	442
2.14167	443
2.15000	444
2.15833	444
2.16667	445
2.17500	445
2.18333	446
2.19167	446
2.20000	446
2.20833	446
2.21667	446
2.22500	446
2.23333	446
2.24167	447
2.25000	447
2.25833	447
2.26667	447
2.27500	446
2.28333	446
2.29167	447
2.30000	447
2.30833	447
2.31667	447
2.32500	447
2.33333	447
2.34167	447
2.35000	446
2.35833	446
2.36667	446
2.37500	446
2.38333	446
2.39167	446
2.40000	445
2.40833	445
2.41667	446
2.42500	446
2.43333	445
2.44167	446
2.45000	446
2.45833	446
2.46667	447
2.47500	447
2.48333	446
2.49167	445
2.50000	444
2.50833	444
2.51667	444
2.52500	444
2.53333	444
2.54167	445
2.55000	444
2.55833	445
2.56667	445
2.57500	445
2.58333	444
2.59167	444
2.60000	444
2.60833	444
2.61667	444
2.62500	444
2.63333	444
2.64167	444
2.65000	444
2.65833	443
2.66667	443
2.67500	442
2.68333	442
2.69167	442
2.70000	441
2.70833	441
2.71667	441
2.72500	440
2.73333	440
2.74167	440
2.75000	440
2.75833	440
2.76667	440
2.77500	440
2.78333	440
2.79167	440
2.80000	441
2.80833	441
2.81667	441
2.82500	441
2.83333	440
2.84167	440
2.85000	439
2.85833	439
2.86667	439
2.87500	438
2.88333	439
2.89167	439
2.90000	438
2.90833	438
2.91667	438
2.92500	438
2.93333	437
2.94167	437
2.95000	437
2.95833	437
2.96667	438
2.97500	438
2.98333	437
2.99167	437
3.00000	437
3.00833	437
3.01667	437
3.02500	437
3.03333	436
3.04167	436
3.05000	435
3.05833	435
3.06667	435
3.07500	435
3.08333	435
3.09167	435
3.10000	435
3.10833	435
3.11667	436
3.12500	435
3.13333	435
3.14167	435
3.15000	435
3.15833	435
3.16667	435
3.17500	435
3.18333	435
3.19167	435
3.20000	435
3.20833	435
3.21667	435
3.22500	434
3.23333	434
3.24167	434
3.25000	434
3.25833	434
3.26667	434
3.27500	434
3.28333	433
3.29167	433
3.30000	433
3.30833	433
3.31667	433
3.32500	433
3.33333	433
3.34167	434
3.35000	434
3.35833	434
3.36667	433
3.37500	433
3.38333	433
3.39167	433
3.40000	433
3.40833	433
3.41667	433
3.42500	433
3.43333	433
3.44167	432
3.45000	432
3.45833	432
3.46667	432
3.47500	432
3.48333	432
3.49167	431
3.50000	431
3.50833	431
3.51667	431
3.52500	431
3.53333	431
3.54167	431
3.55000	431
3.55833	431
3.56667	431
3.57500	431
3.58333	431
3.59167	431
3.60000	431
3.60833	431
3.61667	431
3.62500	431
3.63333	430
3.64167	430
3.65000	430
3.65833	430
3.66667	430
3.67500	429
3.68333	429
3.69167	430
3.70000	430
3.70833	430
3.71667	429
3.72500	429
3.73333	429
3.74167	429
3.75000	429
3.75833	429
3.76667	430
3.77500	430
3.78333	430
3.79167	429
3.80000	429
3.80833	428
3.81667	428
3.82500	428
3.83333	428
3.84167	428
3.85000	428
3.85833	428
3.86667	428
3.87500	427
3.88333	427
3.89167	427
3.90000	427
3.90833	427
3.91667	427
3.92500	427
3.93333	426
3.94167	426
3.95000	426
3.95833	426
3.96667	425
3.97500	425
3.98333	425
3.99167	425
4.00000	424
4.00833	424
4.01667	424
4.02500	424
4.03333	424
4.04167	424
4.05000	424
4.05833	423
4.06667	423
4.07500	423
4.08333	423
4.09167	422
4.10000	422
4.10833	421
4.11667	421
4.12500	421
4.13333	421
4.14167	421
4.15000	421
4.15833	422
4.16667	422
4.17500	422
4.18333	421
4.19167	421
4.20000	421
4.20833	421
4.21667	420
4.22500	420
4.23333	421
4.24167	421
4.25000	421
4.25833	421
4.26667	421
4.27500	421
4.28333	420
4.29167	420
4.30000	420
4.30833	420
4.31667	420
4.32500	420
4.33333	420
4.34167	420
4.35000	420
4.35833	420
4.36667	420
4.37500	421
4.38333	421
4.39167	421
4.40000	422
4.40833	423
4.41667	423
4.42500	424
4.43333	425
4.44167	425
4.45000	426
4.45833	427
4.46667	428
4.47500	430
4.48333	432
4.49167	435
4.50000	439
4.50833	443
4.51667	448
4.52500	453
4.53333	459
4.54167	465
4.55000	472
4.55833	480
4.56667	488
4.57500	496
4.58333	505
4.59167	514
4.60000	524
4.60833	535
4.61667	546
4.62500	556
4.63333	567
4.64167	577
4.65000	587
4.65833	596
4.66667	606
4.67500	616
4.68333	626
4.69167	635
4.70000	643
4.70833	652
4.71667	659
4.72500	667
4.73333	673
4.74167	679
4.75000	683
4.75833	687
4.76667	691
4.77500	695
4.78333	697
4.79167	699
4.80000	700
4.80833	700
4.81667	700
4.82500	699
4.83333	698
4.84167	697
4.85000	695
4.85833	693
4.86667	691
4.87500	688
4.88333	685
4.89167	681
4.90000	678
4.90833	674
4.91667	669
4.92500	665
4.93333	661
4.94167	657
4.95000	653
4.95833	649
4.96667	646
4.97500	642
4.98333	638
4.99167	634
5.00000	630
5.00833	626
5.01667	623
5.02500	620
5.03333	616
5.04167	614
5.05000	611
5.05833	608
5.06667	605
5.07500	602
5.08333	600
5.09167	597
5.10000	595
5.10833	593
5.11667	591
5.12500	589
5.13333	587
5.14167	586
5.15000	584
5.15833	583
5.16667	582
5.17500	581
5.18333	580
5.19167	579
5.20000	579
5.20833	579
5.21667	579
5.22500	579
5.23333	579
5.24167	578
5.25000	578
5.25833	578
5.26667	578
5.27500	579
5.28333	579
5.29167	580
5.30000	580
5.30833	581
5.31667	581
5.32500	582
5.33333	583
5.34167	584
5.35000	586
5.35833	587
5.36667	589
5.37500	591
5.38333	592
5.39167	594
5.40000	595
5.40833	597
5.41667	599
5.42500	602
5.43333	604
5.44167	606
5.45000	608
5.45833	610
5.46667	613
5.47500	616
5.48333	618
5.49167	621
5.50000	624
5.50833	627
5.51667	630
5.52500	633
5.53333	636
5.54167	639
5.55000	642
5.55833	644
5.56667	647
5.57500	650
5.58333	653
5.59167	656
5.60000	660
5.60833	664
5.61667	667
5.62500	671
5.63333	675
5.64167	679
5.65000	683
5.65833	687
5.66667	691
5.67500	696
5.68333	700
5.69167	705
5.70000	710
5.70833	714
5.71667	718
5.72500	723
5.73333	728
5.74167	733
5.75000	739
5.75833	744
5.76667	749
5.77500	755
5.78333	760
5.79167	766
5.80000	772
5.80833	779
5.81667	786
5.82500	793
5.83333	800
5.84167	807
5.85000	814
5.85833	820
5.86667	826
5.87500	833
5.88333	840
5.89167	847
5.90000	853
5.90833	860
5.91667	867
5.92500	875
5.93333	883
5.94167	892
5.95000	901
5.95833	910
5.96667	922
5.97500	935
5.98333	950
5.99167	968
6.00000	989
6.00833	1015
6.01667	1045
6.02500	1082
6.03333	1130
6.04167	1193
6.05000	1279
6.05833	1402
6.06667	1578
6.07500	1832
6.08333	2194
6.09167	2702
6.10000	3400
6.10833	4337
6.11667	5563
6.12500	7131
6.13333	9094
6.14167	11501
6.15000	14397
6.15833	17824
6.16667	21816
6.17500	26399
6.18333	31595
6.19167	37415
6.20000	43868
6.20833	50954
6.21667	58667
6.22500	66999
6.23333	75936
6.24167	85461
6.25000	95554
6.25833	106192
6.26667	117354
6.27500	129012
6.28333	141140
6.29167	153710
6.30000	166691
6.30833	180054
6.31667	193766
6.32500	207799
6.33333	222119
6.34167	236695
6.35000	251496
6.35833	266488
6.36667	281639
6.37500	296912
6.38333	312267
6.39167	327647
6.40000	342943
6.40833	357811
6.41667	371467
6.42500	383197
6.43333	392367
6.44167	398231
6.45000	399465
6.45833	394801
6.46667	383716
6.47500	366436
6.48333	343800
6.49167	317054
6.50000	287633
6.50833	256961
6.51667	226320
6.52500	196754
6.53333	169046
6.54167	143713
6.55000	121040
6.55833	101117
6.56667	83888
6.57500	69195
6.58333	56812
6.59167	46482
6.60000	37940
6.60833	30928
6.61667	25208
6.62500	20566
6.63333	16812
6.64167	13787
6.65000	11353
6.65833	9398
6.66667	7828
6.67500	6567
6.68333	5554
6.69167	4740
6.70000	4084
6.70833	3555
6.71667	3128
6.72500	2782
6.73333	2501
6.74167	2273
6.75000	2088
6.75833	1937
6.76667	1814
6.77500	1714
6.78333	1631
6.79167	1564
6.80000	1508
6.80833	1462
6.81667	1423
6.82500	1390
6.83333	1362
6.84167	1337
6.85000	1315
6.85833	1295
6.86667	1277
6.87500	1260
6.88333	1243
6.89167	1228
6.90000	1213
6.90833	1199
6.91667	1184
6.92500	1170
6.93333	1157
6.94167	1143
6.95000	1131
6.95833	1118
6.96667	1106
6.97500	1094
6.98333	1082
6.99167	1070
7.00000	1059
7.00833	1047
7.01667	1037
7.02500	1026
7.03333	1016
7.04167	1007
7.05000	997
7.05833	987
7.06667	978
7.07500	970
7.08333	961
7.09167	953
7.10000	946
7.10833	939
7.11667	932
7.12500	926
7.13333	920
7.14167	914
7.15000	909
7.15833	904
7.16667	899
7.17500	895
7.18333	891
7.19167	888
7.20000	885
7.20833	881
7.21667	879
7.22500	876
7.23333	874
7.24167	872
7.25000	871
7.25833	870
7.26667	869
7.27500	869
7.28333	869
7.29167	868
7.30000	868
7.30833	869
7.31667	869
7.32500	870
7.33333	871
7.34167	872
7.35000	872
7.35833	872
7.36667	872
7.37500	872
7.38333	873
7.39167	873
7.40000	872
7.40833	872
7.41667	871
7.42500	870
7.43333	869
7.44167	868
7.45000	868
7.45833	868
7.46667	866
7.47500	865
7.48333	863
7.49167	860
7.50000	858
7.50833	856
7.51667	854
7.52500	853
7.53333	851
7.54167	850
7.55000	848
7.55833	846
7.56667	844
7.57500	842
7.58333	840
7.59167	838
7.60000	836
7.60833	834
7.61667	833
7.62500	831
7.63333	829
7.64167	827
7.65000	825
7.65833	822
7.66667	820
7.67500	817
7.68333	814
7.69167	812
7.70000	809
7.70833	807
7.71667	804
7.72500	802
7.73333	799
7.74167	797
7.75000	794
7.75833	792
7.76667	790
7.77500	788
7.78333	786
7.79167	784
7.80000	782
7.80833	780
7.81667	777
7.82500	774
7.83333	772
7.84167	770
7.85000	768
7.85833	765
7.86667	763
7.87500	761
7.88333	759
7.89167	758
7.90000	756
7.90833	755
7.91667	753
7.92500	752
7.93333	751
7.94167	750
7.95000	748
7.95833	747
7.96667	746
7.97500	744
7.98333	743
7.99167	742
8.00000	740
8.00833	739
8.01667	738
8.02500	736
8.03333	735
8.04167	735
8.05000	735
8.05833	735
8.06667	735
8.07500	735
8.08333	734
8.09167	733
8.10000	732
8.10833	731
8.11667	730
8.12500	729
8.13333	728
8.14167	728
8.15000	727
8.15833	727
8.16667	725
8.17500	724
8.18333	724
8.19167	723
8.20000	724
8.20833	724
8.21667	724
8.22500	724
8.23333	723
8.24167	723
8.25000	722
8.25833	721
8.26667	721
8.27500	721
8.28333	720
8.29167	719
8.30000	719
8.30833	718
8.31667	717
8.32500	717
8.33333	716
8.34167	716
8.35000	716
8.35833	716
8.36667	715
8.37500	714
8.38333	714
8.39167	713
8.40000	712
8.40833	711
8.41667	710
8.42500	710
8.43333	709
8.44167	709
8.45000	709
8.45833	708
8.46667	708
8.47500	708
8.48333	708
8.49167	707
8.50000	707
8.50833	706
8.51667	706
8.52500	706
8.53333	706
8.54167	705
8.55000	704
8.55833	703
8.56667	703
8.57500	702
8.58333	700
8.59167	698
8.60000	698
8.60833	697
8.61667	697
8.62500	696
8.63333	695
8.64167	695
8.65000	694
8.65833	693
8.66667	692
8.67500	692
8.68333	692
8.69167	691
8.70000	691
8.70833	691
8.71667	691
8.72500	691
8.73333	692
8.74167	693
8.75000	695
8.75833	698
8.76667	701
8.77500	706
8.78333	711
8.79167	718
8.80000	726
8.80833	735
8.81667	745
8.82500	756
8.83333	768
8.84167	781
8.85000	796
8.85833	812
8.86667	829
8.87500	846
8.88333	862
8.89167	877
8.90000	891
8.90833	904
8.91667	916
8.92500	926
8.93333	935
8.94167	942
8.95000	947
8.95833	949
8.96667	951
8.97500	950
8.98333	948
8.99167	945
9.00000	941
9.00833	934
9.01667	927
9.02500	918
9.03333	909
9.04167	899
9.05000	889
9.05833	879
9.06667	868
9.07500	857
9.08333	846
9.09167	835
9.10000	824
9.10833	814
9.11667	804
9.12500	794
9.13333	784
9.14167	775
9.15000	767
9.15833	758
9.16667	750
9.17500	743
9.18333	736
9.19167	729
9.20000	723
9.20833	717
9.21667	711
9.22500	704
9.23333	699
9.24167	694
9.25000	689
9.25833	685
9.26667	681
9.27500	677
9.28333	673
9.29167	670
9.30000	666
9.30833	663
9.31667	659
9.32500	656
9.33333	652
9.34167	649
9.35000	646
9.35833	643
9.36667	640
9.37500	637
9.38333	634
9.39167	631
9.40000	628
9.40833	626
9.41667	623
9.42500	620
9.43333	617
9.44167	615
9.45000	613
9.45833	610
9.46667	608
9.47500	606
9.48333	604
9.49167	602
9.50000	600
9.50833	598
9.51667	597
9.52500	595
9.53333	592
9.54167	590
9.55000	588
9.55833	586
9.56667	584
9.57500	582
9.58333	581
9.59167	579
9.60000	577
9.60833	574
9.61667	572
9.62500	570
9.63333	569
9.64167	568
9.65000	567
9.65833	565
9.66667	564
9.67500	562
9.68333	561
9.69167	559
9.70000	558
9.70833	556
9.71667	555
9.72500	554
9.73333	552
9.74167	551
9.75000	550
9.75833	549
9.76667	548
9.77500	547
9.78333	545
9.79167	544
9.80000	542
9.80833	541
9.81667	539
9.82500	538
9.83333	536
9.84167	535
9.85000	533
9.85833	532
9.86667	530
9.87500	529
9.88333	529
9.89167	528
9.90000	527
9.90833	527
9.91667	526
9.92500	525
9.93333	525
9.94167	525
9.95000	524
9.95833	523
9.96667	522
9.97500	521
9.98333	519
9.99167	519
10.00000	518
10.00833	518
10.01667	517
10.02500	516
10.03333	515
10.04167	513
10.05000	512
10.05833	512
10.06667	511
10.07500	510
10.08333	509
10.09167	509
10.10000	510
10.10833	509
10.11667	508
10.12500	507
10.13333	505
10.14167	503
10.15000	502
10.15833	501
10.16667	500
10.17500	499
10.18333	499
10.19167	498
10.20000	497
10.20833	497
10.21667	496
10.22500	495
10.23333	494
10.24167	492
10.25000	491
10.25833	491
10.26667	490
10.27500	489
10.28333	488
10.29167	488
10.30000	487
10.30833	486
10.31667	486
10.32500	485
10.33333	484
10.34167	483
10.35000	481
10.35833	480
10.36667	479
10.37500	478
10.38333	477
10.39167	477
10.40000	477
10.40833	477
10.41667	477
10.42500	476
10.43333	475
10.44167	474
10.45000	473
10.45833	473
10.46667	472
10.47500	471
10.48333	470
10.49167	469
10.50000	469
10.50833	468
10.51667	467
10.52500	467
10.53333	466
10.54167	465
10.55000	464
10.55833	463
10.56667	462
10.57500	461
10.58333	460
10.59167	459
10.60000	458
10.60833	457
10.61667	456
10.62500	455
10.63333	454
10.64167	454
10.65000	453
10.65833	453
10.66667	453
10.67500	452
10.68333	451
10.69167	450
10.70000	449
10.70833	449
10.71667	449
10.72500	449
10.73333	448
10.74167	448
10.75000	448
10.75833	448
10.76667	448
10.77500	448
10.78333	448
10.79167	448
10.80000	448
10.80833	448
10.81667	449
10.82500	449
10.83333	449
10.84167	449
10.85000	449
10.85833	449
10.86667	448
10.87500	447
10.88333	447
10.89167	447
10.90000	447
10.90833	446
10.91667	445
10.92500	444
10.93333	443
10.94167	441
10.95000	440
10.95833	439
10.96667	437
10.97500	435
10.98333	434
10.99167	432
11.00000	431
11.00833	430
11.01667	429
11.02500	428
11.03333	426
11.04167	426
11.05000	425
11.05833	425
11.06667	425
11.07500	426
11.08333	427
11.09167	428
11.10000	429
11.10833	431
11.11667	433
11.12500	434
11.13333	437
11.14167	440
11.15000	445
11.15833	450
11.16667	455
11.17500	461
11.18333	468
11.19167	473
11.20000	479
11.20833	484
11.21667	489
11.22500	495
11.23333	500
11.24167	504
11.25000	508
11.25833	511
11.26667	515
11.27500	516
11.28333	517
11.29167	516
11.30000	515
11.30833	514
11.31667	512
11.32500	509
11.33333	505
11.34167	500
11.35000	495
11.35833	490
11.36667	485
11.37500	480
11.38333	474
11.39167	469
11.40000	464
11.40833	460
11.41667	454
11.42500	450
11.43333	445
11.44167	441
11.45000	437
11.45833	433
11.46667	430
11.47500	427
11.48333	424
11.49167	422
11.50000	420
11.50833	418
11.51667	416
11.52500	415
11.53333	414
11.54167	413
11.55000	412
11.55833	412
11.56667	412
11.57500	413
11.58333	415
11.59167	417
11.60000	419
11.60833	422
11.61667	426
11.62500	431
11.63333	436
11.64167	442
11.65000	449
11.65833	456
11.66667	464
11.67500	473
11.68333	483
11.69167	493
11.70000	504
11.70833	515
11.71667	527
11.72500	539
11.73333	551
11.74167	562
11.75000	573
11.75833	584
11.76667	594
11.77500	603
11.78333	611
11.79167	618
11.80000	623
11.80833	626
11.81667	628
11.82500	629
11.83333	628
11.84167	626
11.85000	623
11.85833	619
11.86667	614
11.87500	607
11.88333	600
11.89167	593
11.90000	584
11.90833	575
11.91667	565
11.92500	556
11.93333	547
11.94167	537
11.95000	527
11.95833	518
11.96667	508
11.97500	498
11.98333	489
11.99167	481
12.00000	473
12.00833	465
12.01667	458
12.02500	452
12.03333	446
12.04167	441
12.05000	436
12.05833	432
12.06667	428
12.07500	425
12.08333	421
12.09167	418
12.10000	416
12.10833	414
12.11667	412
12.12500	410
12.13333	409
12.14167	408
12.15000	407
12.15833	406
12.16667	406
12.17500	405
12.18333	405
12.19167	405
12.20000	404
12.20833	404
12.21667	403
12.22500	403
12.23333	403
12.24167	402
12.25000	402
12.25833	401
12.26667	400
12.27500	399
12.28333	398
12.29167	397
12.30000	395
12.30833	394
12.31667	393
12.32500	392
12.33333	391
12.34167	390
12.35000	389
12.35833	388
12.36667	387
12.37500	386
12.38333	385
12.39167	384
12.40000	383
12.40833	382
12.41667	381
12.42500	381
12.43333	381
12.44167	380
12.45000	380
12.45833	379
12.46667	379
12.47500	379
12.48333	380
12.49167	380
12.50000	381
12.50833	381
12.51667	381
12.52500	381
12.53333	382
12.54167	383
12.55000	384
12.55833	385
12.56667	386
12.57500	386
12.58333	387
12.59167	388
12.60000	389
12.60833	390
12.61667	391
12.62500	391
12.63333	392
12.64167	393
12.65000	393
12.65833	393
12.66667	393
12.67500	393
12.68333	393
12.69167	393
12.70000	393
12.70833	392
12.71667	392
12.72500	391
12.73333	391
12.74167	390
12.75000	390
12.75833	389
12.76667	388
12.77500	387
12.78333	386
12.79167	385
12.80000	384
12.80833	383
12.81667	383
12.82500	381
12.83333	380
12.84167	379
12.85000	379
12.85833	378
12.86667	378
12.87500	378
12.88333	378
12.89167	378
12.90000	378
12.90833	378
12.91667	380
12.92500	381
12.93333	384
12.94167	387
12.95000	391
12.95833	397
12.96667	406
12.97500	417
12.98333	431
12.99167	450
13.00000	476
13.00833	510
13.01667	554
13.02500	613
13.03333	690
13.04167	791
13.05000	924
13.05833	1098
13.06667	1326
13.07500	1623
13.08333	2010
13.09167	2512
13.10000	3160
13.10833	3994
13.11667	5063
13.12500	6427
13.13333	8160
13.14167	10347
13.15000	13094
13.15833	16520
13.16667	20765
13.17500	25989
13.18333	32370
13.19167	40104
13.20000	49398
13.20833	60472
13.21667	73545
13.22500	88831
13.23333	106523
13.24167	126782
13.25000	149718
13.25833	175377
13.26667	203726
13.27500	234638
13.28333	267821
13.29167	301985
13.30000	335414
13.30833	367416
13.31667	397883
13.32500	426906
13.33333	454595
13.34167	481015
13.35000	506179
13.35833	530059
13.36667	552609
13.37500	573782
13.38333	593545
13.39167	611880
13.40000	628789
13.40833	644290
13.41667	658418
13.42500	671213
13.43333	682720
13.44167	692983
13.45000	702042
13.45833	709934
13.46667	716691
13.47500	722341
13.48333	726907
13.49167	730408
13.50000	732862
13.50833	734283
13.51667	734685
13.52500	734081
13.53333	732482
13.54167	729899
13.55000	726347
13.55833	721843
13.56667	716408
13.57500	710068
13.58333	702858
13.59167	694825
13.60000	686027
13.60833	676532
13.61667	666425
13.62500	655800
13.63333	644759
13.64167	633411
13.65000	621868
13.65833	610240
13.66667	598629
13.67500	587126
13.68333	575804
13.69167	564720
13.70000	553910
13.70833	543389
13.71667	533153
13.72500	523180
13.73333	513434
13.74167	503862
13.75000	494406
13.75833	485002
13.76667	475582
13.77500	466082
13.78333	456439
13.79167	446582
13.80000	436115
13.80833	424291
13.81667	410775
13.82500	395554
13.83333	378759
13.84167	360579
13.85000	341231
13.85833	320947
13.86667	299972
13.87500	278565
13.88333	256996
13.89167	235543
13.90000	214477
13.90833	194054
13.91667	174503
13.92500	156016
13.93333	138742
13.94167	122784
13.95000	108201
13.95833	95006
13.96667	83179
13.97500	72666
13.98333	63395
13.99167	55276
14.00000	48211
14.00833	42096
14.01667	36829
14.02500	32311
14.03333	28449
14.04167	25155
14.05000	22353
14.05833	19971
14.06667	17949
14.07500	16231
14.08333	14771
14.09167	13527
14.10000	12466
14.10833	11557
14.11667	10776
14.12500	10101
14.13333	9515
14.14167	9004
14.15000	8554
14.15833	8155
14.16667	7801
14.17500	7483
14.18333	7195
14.19167	6934
14.20000	6694
14.20833	6474
14.21667	6270
14.22500	6081
14.23333	5903
14.24167	5737
14.25000	5580
14.25833	5432
14.26667	5291
14.27500	5157
14.28333	5030
14.29167	4909
14.30000	4794
14.30833	4683
14.31667	4577
14.32500	4476
14.33333	4379
14.34167	4287
14.35000	4198
14.35833	4113
14.36667	4031
14.37500	3952
14.38333	3877
14.39167	3804
14.40000	3734
14.40833	3667
14.41667	3603
14.42500	3541
14.43333	3481
14.44167	3424
14.45000	3368
14.45833	3314
14.46667	3263
14.47500	3213
14.48333	3165
14.49167	3118
14.50000	3073
14.50833	3029
14.51667	2987
14.52500	2946
14.53333	2906
14.54167	2867
14.55000	2830
14.55833	2795
14.56667	2760
14.57500	2726
14.58333	2693
14.59167	2662
14.60000	2631
14.60833	2600
14.61667	2570
14.62500	2541
14.63333	2513
14.64167	2485
14.65000	2458
14.65833	2432
14.66667	2407
14.67500	2382
14.68333	2358
14.69167	2335
14.70000	2313
14.70833	2291
14.71667	2269
14.72500	2248
14.73333	2227
14.74167	2207
14.75000	2187
14.75833	2167
14.76667	2147
14.77500	2128
14.78333	2109
14.79167	2091
14.80000	2073
14.80833	2055
14.81667	2038
14.82500	2020
14.83333	2003
14.84167	1986
14.85000	1969
14.85833	1953
14.86667	1937
14.87500	1922
14.88333	1907
14.89167	1892
14.90000	1877
14.90833	1862
14.91667	1847
14.92500	1832
14.93333	1818
14.94167	1804
14.95000	1790
14.95833	1776
14.96667	1763
14.97500	1750
14.98333	1737
14.99167	1724
15.00000	1711
15.00833	1699
15.01667	1687
15.02500	1674
15.03333	1663
15.04167	1652
15.05000	1641
15.05833	1630
15.06667	1619
15.07500	1607
15.08333	1597
15.09167	1586
15.10000	1575
15.10833	1565
15.11667	1554
15.12500	1543
15.13333	1533
15.14167	1523
15.15000	1512
15.15833	1502
15.16667	1492
15.17500	1482
15.18333	1472
15.19167	1463
15.20000	1454
15.20833	1446
15.21667	1437
15.22500	1428
15.23333	1420
15.24167	1411
15.25000	1402
15.25833	1394
15.26667	1386
15.27500	1379
15.28333	1371
15.29167	1363
15.30000	1356
15.30833	1348
15.31667	1339
15.32500	1332
15.33333	1325
15.34167	1318
15.35000	1311
15.35833	1304
15.36667	1297
15.37500	1290
15.38333	1283
15.39167	1276
15.40000	1270
15.40833	1263
15.41667	1257
15.42500	1251
15.43333	1244
15.44167	1238
15.45000	1232
15.45833	1225
15.46667	1219
15.47500	1214
15.48333	1208
15.49167	1203
15.50000	1198
15.50833	1192
15.51667	1187
15.52500	1181
15.53333	1176
15.54167	1171
15.55000	1165
15.55833	1160
15.56667	1154
15.57500	1149
15.58333	1144
15.59167	1139
15.60000	1133
15.60833	1128
15.61667	1122
15.62500	1117
15.63333	1112
15.64167	1108
15.65000	1103
15.65833	1098
15.66667	1093
15.67500	1089
15.68333	1085
15.69167	1081
15.70000	1076
15.70833	1072
15.71667	1067
15.72500	1063
15.73333	1058
15.74167	1053
15.75000	1049
15.75833	1045
15.76667	1040
15.77500	1036
15.78333	1032
15.79167	1029
15.80000	1025
15.80833	1021
15.81667	1017
15.82500	1013
15.83333	1009
15.84167	1005
15.85000	1001
15.85833	997
15.86667	993
15.87500	990
15.88333	986
15.89167	983
15.90000	979
15.90833	975
15.91667	972
15.92500	969
15.93333	965
15.94167	962
15.95000	959
15.95833	956
15.96667	952
15.97500	948
15.98333	945
15.99167	941
16.00000	938
16.00833	935
16.01667	931
16.02500	928
16.03333	925
16.04167	923
16.05000	919
16.05833	916
16.06667	913
16.07500	910
16.08333	907
16.09167	904
16.10000	901
16.10833	898
16.11667	894
16.12500	891
16.13333	889
16.14167	887
16.15000	885
16.15833	882
16.16667	878
16.17500	874
16.18333	871
16.19167	867
16.20000	864
16.20833	860
16.21667	856
16.22500	853
16.23333	850
16.24167	847
16.25000	844
16.25833	841
16.26667	839
16.27500	837
16.28333	834
16.29167	831
16.30000	828
16.30833	825
16.31667	822
16.32500	819
16.33333	816
16.34167	814
16.35000	811
16.35833	808
16.36667	806
16.37500	803
16.38333	800
16.39167	797
16.40000	794
16.40833	792
16.41667	789
16.42500	786
16.43333	784
16.44167	781
16.45000	778
16.45833	776
16.46667	774
16.47500	772
16.48333	770
16.49167	768
16.50000	766
16.50833	765
16.51667	765
16.52500	763
16.53333	760
16.54167	757
16.55000	754
16.55833	751
16.56667	748
16.57500	746
16.58333	744
16.59167	742
16.60000	739
16.60833	737
16.61667	735
16.62500	734
16.63333	732
16.64167	730
16.65000	728
16.65833	727
16.66667	725
16.67500	723
16.68333	721
16.69167	719
16.70000	717
16.70833	715
16.71667	714
16.72500	713
16.73333	711
16.74167	709
16.75000	707
16.75833	705
16.76667	703
16.77500	701
16.78333	698
16.79167	696
16.80000	695
16.80833	693
16.81667	691
16.82500	690
16.83333	688
16.84167	686
16.85000	684
16.85833	682
16.86667	681
16.87500	679
16.88333	678
16.89167	677
16.90000	675
16.90833	674
16.91667	673
16.92500	671
16.93333	670
16.94167	668
16.95000	667
16.95833	665
16.96667	663
16.97500	661
16.98333	659
16.99167	658
17.00000	656
17.00833	655
17.01667	654
17.02500	653
17.03333	652
17.04167	650
17.05000	649
17.05833	647
17.06667	645
17.07500	644
17.08333	642
17.09167	641
17.10000	640
17.10833	638
17.11667	637
17.12500	635
17.13333	634
17.14167	632
17.15000	631
17.15833	630
17.16667	629
17.17500	628
17.18333	626
17.19167	625
17.20000	624
17.20833	623
17.21667	622
17.22500	621
17.23333	620
17.24167	619
17.25000	618
17.25833	617
17.26667	616
17.27500	615
17.28333	614
17.29167	614
17.30000	614
17.30833	613
17.31667	612
17.32500	611
17.33333	610
17.34167	609
17.35000	608
17.35833	606
17.36667	605
17.37500	603
17.38333	602
17.39167	601
17.40000	599
17.40833	597
17.41667	596
17.42500	594
17.43333	594
17.44167	593
17.45000	591
17.45833	590
17.46667	588
17.47500	587
17.48333	586
17.49167	585
17.50000	583
17.50833	582
17.51667	581
17.52500	580
17.53333	578
17.54167	577
17.55000	575
17.55833	574
17.56667	572
17.57500	569
17.58333	568
17.59167	567
17.60000	565
17.60833	564
17.61667	563
17.62500	563
17.63333	561
17.64167	560
17.65000	558
17.65833	558
17.66667	557
17.67500	556
17.68333	556
17.69167	555
17.70000	554
17.70833	553
17.71667	552
17.72500	551
17.73333	550
17.74167	548
17.75000	547
17.75833	545
17.76667	545
17.77500	543
17.78333	543
17.79167	542
17.80000	541
17.80833	540
17.81667	539
17.82500	538
17.83333	536
17.84167	535
17.85000	533
17.85833	531
17.86667	529
17.87500	528
17.88333	527
17.89167	526
17.90000	525
17.90833	524
17.91667	523
17.92500	522
17.93333	522
17.94167	521
17.95000	520
17.95833	518
17.96667	516
17.97500	515
17.98333	514
17.99167	512
18.00000	511

