[Header]
Application Name	LabSolutions
Version	5.111
Data File Name	C:\LabSolutions\Data\Rachel\SampleProject\SampleDataFile_Experiment.lcd
Output Date	11/2/2023
Output Time	5:52:08 AM

[File Information]
Type	Data File
Generated	11/1/2023 4:28:37 PM
Generated by	System Administrator
Modified	11/1/2023 4:46:54 PM
Modified by	System Administrator

[Sample Information]
Operator Name	System Administrator
Acquired	11/1/2023 4:28:54 PM
Sample Type	0:Unknown
Level	1
Sample Name	SampleDataFile
Sample ID	Experiment
ISTD Amount1	1
ISTD Amount2	1
ISTD Amount3	1
ISTD Amount4	1
ISTD Amount5	1
ISTD Amount6	1
ISTD Amount7	1
ISTD Amount8	1
ISTD Amount9	1
ISTD Amount10	1
ISTD Amount11	1
ISTD Amount12	1
ISTD Amount13	1
ISTD Amount14	1
ISTD Amount15	1
ISTD Amount16	1
ISTD Amount17	1
ISTD Amount18	1
ISTD Amount19	1
ISTD Amount20	1
ISTD Amount21	1
ISTD Amount22	1
ISTD Amount23	1
ISTD Amount24	1
ISTD Amount25	1
ISTD Amount26	1
ISTD Amount27	1
ISTD Amount28	1
ISTD Amount29	1
ISTD Amount30	1
ISTD Amount31	1
ISTD Amount32	1
Sample Amount	1
Dilution Factor	1
Vial#	49
Injection Volume	20

[Original Files]
Data File	C:\LabSolutions\Data\Rachel\SampleProject\SampleDataFile_Experiment.lcd
Method File	C:\LabSolutions\Data\Rachel\SampleProject\SampleMethod.lcm
Batch File	C:\LabSolutions\Data\Rachel\SampleProject\SampleBatch.lcb
Report Format File	C:\LabSolutions\System\DEFAULT.lsr

[File Description]


[Configuration]
Instrument Name	HPLC
Instrument #	1
Line #	1
# of Detectors	2
Detector ID	Detector A	Detector B
Detector Name	Detector A	Detector B
# of Channels	2	1

[LC Chromatogram(Detector A-Ch1)]
Interval(msec)	500
# of Points	2161
Start Time(min)	0.000
End Time(min)	18.000
Intensity Units	mAU
Intensity Multiplier	0.001
Wavelength(nm)	210nm
R.Time (min)	Intensity
0.00000	14835
0.00833	14835
0.01667	14822
0.02500	14810
0.03333	14799
0.04167	14789
0.05000	14778
0.05833	14764
0.06667	14745
0.07500	14721
0.08333	14698
0.09167	14688
0.10000	14695
0.10833	14713
0.11667	14731
0.12500	14742
0.13333	14740
0.14167	14730
0.15000	14719
0.15833	14708
0.16667	14696
0.17500	14682
0.18333	14667
0.19167	14652
0.20000	14640
0.20833	14628
0.21667	14613
0.22500	14598
0.23333	14586
0.24167	14573
0.25000	14557
0.25833	14539
0.26667	14517
0.27500	14496
0.28333	14476
0.29167	14458
0.30000	14439
0.30833	14421
0.31667	14411
0.32500	14411
0.33333	14411
0.34167	14404
0.35000	14390
0.35833	14372
0.36667	14357
0.37500	14344
0.38333	14332
0.39167	14319
0.40000	14303
0.40833	14286
0.41667	14270
0.42500	14254
0.43333	14237
0.44167	14218
0.45000	14199
0.45833	14184
0.46667	14174
0.47500	14165
0.48333	14154
0.49167	14142
0.50000	14132
0.50833	14125
0.51667	14116
0.52500	14104
0.53333	14092
0.54167	14080
0.55000	14066
0.55833	14051
0.56667	14037
0.57500	14027
0.58333	14023
0.59167	14016
0.60000	14005
0.60833	13993
0.61667	13984
0.62500	13977
0.63333	13972
0.64167	13963
0.65000	13950
0.65833	13937
0.66667	13927
0.67500	13919
0.68333	13911
0.69167	13901
0.70000	13893
0.70833	13888
0.71667	13882
0.72500	13873
0.73333	13863
0.74167	13853
0.75000	13842
0.75833	13830
0.76667	13816
0.77500	13803
0.78333	13793
0.79167	13783
0.80000	13770
0.80833	13756
0.81667	13746
0.82500	13737
0.83333	13728
0.84167	13719
0.85000	13709
0.85833	13696
0.86667	13681
0.87500	13667
0.88333	13658
0.89167	13648
0.90000	13636
0.90833	13624
0.91667	13611
0.92500	13595
0.93333	13582
0.94167	13569
0.95000	13552
0.95833	13533
0.96667	13509
0.97500	13484
0.98333	13460
0.99167	13436
1.00000	13413
1.00833	13393
1.01667	13375
1.02500	13356
1.03333	13337
1.04167	13316
1.05000	13291
1.05833	13267
1.06667	13244
1.07500	13222
1.08333	13200
1.09167	13179
1.10000	13156
1.10833	13131
1.11667	13107
1.12500	13082
1.13333	13057
1.14167	13035
1.15000	13016
1.15833	12997
1.16667	12978
1.17500	12960
1.18333	12937
1.19167	12911
1.20000	12888
1.20833	12870
1.21667	12856
1.22500	12842
1.23333	12832
1.24167	12830
1.25000	12834
1.25833	12831
1.26667	12820
1.27500	12802
1.28333	12780
1.29167	12759
1.30000	12748
1.30833	12756
1.31667	12770
1.32500	12773
1.33333	12762
1.34167	12743
1.35000	12720
1.35833	12698
1.36667	12676
1.37500	12657
1.38333	12645
1.39167	12636
1.40000	12628
1.40833	12621
1.41667	12615
1.42500	12610
1.43333	12609
1.44167	12615
1.45000	12623
1.45833	12629
1.46667	12631
1.47500	12631
1.48333	12631
1.49167	12634
1.50000	12639
1.50833	12642
1.51667	12644
1.52500	12647
1.53333	12651
1.54167	12656
1.55000	12662
1.55833	12668
1.56667	12670
1.57500	12668
1.58333	12665
1.59167	12667
1.60000	12673
1.60833	12682
1.61667	12690
1.62500	12694
1.63333	12696
1.64167	12699
1.65000	12701
1.65833	12699
1.66667	12699
1.67500	12701
1.68333	12701
1.69167	12701
1.70000	12699
1.70833	12693
1.71667	12687
1.72500	12683
1.73333	12678
1.74167	12670
1.75000	12659
1.75833	12650
1.76667	12643
1.77500	12636
1.78333	12631
1.79167	12624
1.80000	12613
1.80833	12599
1.81667	12587
1.82500	12575
1.83333	12561
1.84167	12547
1.85000	12536
1.85833	12521
1.86667	12506
1.87500	12490
1.88333	12476
1.89167	12461
1.90000	12441
1.90833	12420
1.91667	12399
1.92500	12381
1.93333	12363
1.94167	12342
1.95000	12320
1.95833	12299
1.96667	12277
1.97500	12257
1.98333	12235
1.99167	12212
2.00000	12190
2.00833	12170
2.01667	12148
2.02500	12128
2.03333	12110
2.04167	12094
2.05000	12079
2.05833	12065
2.06667	12048
2.07500	12032
2.08333	12017
2.09167	12003
2.10000	11988
2.10833	11972
2.11667	11954
2.12500	11936
2.13333	11920
2.14167	11906
2.15000	11891
2.15833	11874
2.16667	11859
2.17500	11849
2.18333	11839
2.19167	11825
2.20000	11806
2.20833	11787
2.21667	11770
2.22500	11755
2.23333	11744
2.24167	11732
2.25000	11718
2.25833	11702
2.26667	11684
2.27500	11664
2.28333	11647
2.29167	11632
2.30000	11616
2.30833	11603
2.31667	11592
2.32500	11583
2.33333	11573
2.34167	11560
2.35000	11547
2.35833	11536
2.36667	11525
2.37500	11513
2.38333	11503
2.39167	11494
2.40000	11485
2.40833	11477
2.41667	11473
2.42500	11470
2.43333	11466
2.44167	11461
2.45000	11452
2.45833	11443
2.46667	11434
2.47500	11425
2.48333	11416
2.49167	11407
2.50000	11398
2.50833	11393
2.51667	11390
2.52500	11387
2.53333	11385
2.54167	11382
2.55000	11376
2.55833	11368
2.56667	11359
2.57500	11350
2.58333	11344
2.59167	11337
2.60000	11331
2.60833	11325
2.61667	11317
2.62500	11309
2.63333	11304
2.64167	11297
2.65000	11286
2.65833	11272
2.66667	11261
2.67500	11249
2.68333	11232
2.69167	11217
2.70000	11207
2.70833	11201
2.71667	11198
2.72500	11194
2.73333	11187
2.74167	11178
2.75000	11170
2.75833	11163
2.76667	11156
2.77500	11146
2.78333	11137
2.79167	11130
2.80000	11125
2.80833	11117
2.81667	11109
2.82500	11102
2.83333	11093
2.84167	11081
2.85000	11070
2.85833	11061
2.86667	11051
2.87500	11043
2.88333	11033
2.89167	11024
2.90000	11018
2.90833	11017
2.91667	11015
2.92500	11009
2.93333	11000
2.94167	10990
2.95000	10981
2.95833	10974
2.96667	10967
2.97500	10962
2.98333	10962
2.99167	10963
3.00000	10961
3.00833	10955
3.01667	10949
3.02500	10947
3.03333	10947
3.04167	10947
3.05000	10948
3.05833	10946
3.06667	10937
3.07500	10927
3.08333	10922
3.09167	10921
3.10000	10918
3.10833	10917
3.11667	10917
3.12500	10917
3.13333	10914
3.14167	10913
3.15000	10914
3.15833	10915
3.16667	10916
3.17500	10916
3.18333	10915
3.19167	10915
3.20000	10915
3.20833	10914
3.21667	10914
3.22500	10913
3.23333	10911
3.24167	10910
3.25000	10908
3.25833	10906
3.26667	10906
3.27500	10905
3.28333	10900
3.29167	10894
3.30000	10890
3.30833	10890
3.31667	10891
3.32500	10887
3.33333	10878
3.34167	10872
3.35000	10869
3.35833	10865
3.36667	10864
3.37500	10866
3.38333	10866
3.39167	10863
3.40000	10859
3.40833	10853
3.41667	10848
3.42500	10845
3.43333	10844
3.44167	10844
3.45000	10846
3.45833	10848
3.46667	10852
3.47500	10856
3.48333	10860
3.49167	10862
3.50000	10863
3.50833	10861
3.51667	10856
3.52500	10852
3.53333	10849
3.54167	10844
3.55000	10839
3.55833	10836
3.56667	10835
3.57500	10834
3.58333	10832
3.59167	10831
3.60000	10832
3.60833	10832
3.61667	10833
3.62500	10832
3.63333	10832
3.64167	10842
3.65000	10864
3.65833	10889
3.66667	10917
3.67500	10960
3.68333	10997
3.69167	10998
3.70000	10962
3.70833	10916
3.71667	10874
3.72500	10840
3.73333	10822
3.74167	10814
3.75000	10804
3.75833	10788
3.76667	10767
3.77500	10744
3.78333	10729
3.79167	10723
3.80000	10722
3.80833	10724
3.81667	10724
3.82500	10722
3.83333	10720
3.84167	10722
3.85000	10723
3.85833	10718
3.86667	10711
3.87500	10701
3.88333	10690
3.89167	10681
3.90000	10674
3.90833	10671
3.91667	10670
3.92500	10670
3.93333	10676
3.94167	10682
3.95000	10683
3.95833	10678
3.96667	10669
3.97500	10662
3.98333	10659
3.99167	10655
4.00000	10649
4.00833	10642
4.01667	10634
4.02500	10626
4.03333	10618
4.04167	10613
4.05000	10609
4.05833	10610
4.06667	10621
4.07500	10640
4.08333	10657
4.09167	10672
4.10000	10690
4.10833	10714
4.11667	10740
4.12500	10763
4.13333	10790
4.14167	10823
4.15000	10861
4.15833	10903
4.16667	10958
4.17500	11026
4.18333	11102
4.19167	11187
4.20000	11282
4.20833	11390
4.21667	11515
4.22500	11655
4.23333	11807
4.24167	11974
4.25000	12164
4.25833	12386
4.26667	12648
4.27500	12963
4.28333	13343
4.29167	13805
4.30000	14367
4.30833	15050
4.31667	15871
4.32500	16844
4.33333	17982
4.34167	19292
4.35000	20775
4.35833	22426
4.36667	24236
4.37500	26200
4.38333	28305
4.39167	30531
4.40000	32857
4.40833	35268
4.41667	37750
4.42500	40285
4.43333	42856
4.44167	45445
4.45000	48029
4.45833	50586
4.46667	53101
4.47500	55562
4.48333	57962
4.49167	60287
4.50000	62526
4.50833	64671
4.51667	66702
4.52500	68611
4.53333	70392
4.54167	72040
4.55000	73539
4.55833	74875
4.56667	76044
4.57500	77044
4.58333	77866
4.59167	78509
4.60000	78985
4.60833	79311
4.61667	79483
4.62500	79492
4.63333	79347
4.64167	79067
4.65000	78667
4.65833	78163
4.66667	77564
4.67500	76884
4.68333	76135
4.69167	75325
4.70000	74461
4.70833	73549
4.71667	72606
4.72500	71659
4.73333	70719
4.74167	69785
4.75000	68865
4.75833	67973
4.76667	67114
4.77500	66270
4.78333	65431
4.79167	64608
4.80000	63814
4.80833	63053
4.81667	62322
4.82500	61626
4.83333	60980
4.84167	60409
4.85000	59910
4.85833	59424
4.86667	58897
4.87500	58330
4.88333	57756
4.89167	57201
4.90000	56682
4.90833	56212
4.91667	55790
4.92500	55405
4.93333	55052
4.94167	54729
4.95000	54433
4.95833	54165
4.96667	53925
4.97500	53705
4.98333	53511
4.99167	53349
5.00000	53216
5.00833	53109
5.01667	53028
5.02500	52973
5.03333	52944
5.04167	52947
5.05000	52981
5.05833	53038
5.06667	53120
5.07500	53231
5.08333	53369
5.09167	53528
5.10000	53704
5.10833	53898
5.11667	54122
5.12500	54376
5.13333	54648
5.14167	54940
5.15000	55255
5.15833	55593
5.16667	55951
5.17500	56324
5.18333	56708
5.19167	57104
5.20000	57516
5.20833	57947
5.21667	58400
5.22500	58876
5.23333	59373
5.24167	59882
5.25000	60398
5.25833	60927
5.26667	61469
5.27500	62027
5.28333	62606
5.29167	63203
5.30000	63817
5.30833	64443
5.31667	65078
5.32500	65724
5.33333	66380
5.34167	67050
5.35000	67735
5.35833	68433
5.36667	69142
5.37500	69862
5.38333	70594
5.39167	71337
5.40000	72093
5.40833	72864
5.41667	73643
5.42500	74425
5.43333	75213
5.44167	76011
5.45000	76817
5.45833	77634
5.46667	78468
5.47500	79314
5.48333	80174
5.49167	81053
5.50000	81949
5.50833	82864
5.51667	83804
5.52500	84771
5.53333	85764
5.54167	86787
5.55000	87842
5.55833	88928
5.56667	90043
5.57500	91186
5.58333	92357
5.59167	93550
5.60000	94765
5.60833	95998
5.61667	97247
5.62500	98508
5.63333	99775
5.64167	101036
5.65000	102280
5.65833	103502
5.66667	104701
5.67500	105872
5.68333	107009
5.69167	108112
5.70000	109180
5.70833	110217
5.71667	111219
5.72500	112181
5.73333	113099
5.74167	113966
5.75000	114773
5.75833	115515
5.76667	116195
5.77500	116819
5.78333	117414
5.79167	118035
5.80000	118784
5.80833	119802
5.81667	121265
5.82500	123380
5.83333	126346
5.84167	130296
5.85000	135245
5.85833	141057
5.86667	147416
5.87500	153849
5.88333	159794
5.89167	164685
5.90000	168042
5.90833	169560
5.91667	169149
5.92500	166908
5.93333	163100
5.94167	158092
5.95000	152302
5.95833	146132
5.96667	139940
5.97500	134037
5.98333	128675
5.99167	124059
6.00000	120347
6.00833	117667
6.01667	116137
6.02500	115851
6.03333	116876
6.04167	119266
6.05000	123091
6.05833	128426
6.06667	135327
6.07500	143858
6.08333	154078
6.09167	166020
6.10000	179682
6.10833	195019
6.11667	211967
6.12500	230424
6.13333	250217
6.14167	271101
6.15000	292787
6.15833	314951
6.16667	337233
6.17500	359270
6.18333	380707
6.19167	401209
6.20000	420478
6.20833	438263
6.21667	454368
6.22500	468637
6.23333	480947
6.24167	491253
6.25000	499587
6.25833	506005
6.26667	510531
6.27500	512962
6.28333	511998
6.29167	503299
6.30000	479678
6.30833	436783
6.31667	378104
6.32500	312631
6.33333	249117
6.34167	192882
6.35000	145839
6.35833	107802
6.36667	77691
6.37500	54205
6.38333	36120
6.39167	22363
6.40000	12030
6.40833	4387
6.41667	-1120
6.42500	-4860
6.43333	-7034
6.44167	-7719
6.45000	-6923
6.45833	-4677
6.46667	-1169
6.47500	3242
6.48333	8060
6.49167	12723
6.50000	16705
6.50833	19635
6.51667	21339
6.52500	21835
6.53333	21300
6.54167	19995
6.55000	18185
6.55833	16102
6.56667	13928
6.57500	11794
6.58333	9775
6.59167	7912
6.60000	6214
6.60833	4679
6.61667	3307
6.62500	2095
6.63333	1016
6.64167	33
6.65000	-877
6.65833	-1715
6.66667	-2477
6.67500	-3157
6.68333	-3755
6.69167	-4271
6.70000	-4706
6.70833	-5067
6.71667	-5358
6.72500	-5586
6.73333	-5752
6.74167	-5857
6.75000	-5905
6.75833	-5904
6.76667	-5859
6.77500	-5777
6.78333	-5659
6.79167	-5508
6.80000	-5331
6.80833	-5132
6.81667	-4909
6.82500	-4669
6.83333	-4417
6.84167	-4152
6.85000	-3873
6.85833	-3584
6.86667	-3287
6.87500	-2980
6.88333	-2665
6.89167	-2344
6.90000	-2017
6.90833	-1682
6.91667	-1336
6.92500	-976
6.93333	-603
6.94167	-220
6.95000	168
6.95833	558
6.96667	956
6.97500	1367
6.98333	1788
6.99167	2215
7.00000	2649
7.00833	3092
7.01667	3543
7.02500	4000
7.03333	4464
7.04167	4936
7.05000	5418
7.05833	5909
7.06667	6411
7.07500	6923
7.08333	7441
7.09167	7962
7.10000	8490
7.10833	9027
7.11667	9573
7.12500	10130
7.13333	10696
7.14167	11271
7.15000	11852
7.15833	12437
7.16667	13023
7.17500	13613
7.18333	14205
7.19167	14800
7.20000	15401
7.20833	16009
7.21667	16626
7.22500	17254
7.23333	17890
7.24167	18533
7.25000	19182
7.25833	19837
7.26667	20496
7.27500	21160
7.28333	21829
7.29167	22504
7.30000	23185
7.30833	23872
7.31667	24569
7.32500	25272
7.33333	25975
7.34167	26675
7.35000	27374
7.35833	28064
7.36667	28742
7.37500	29410
7.38333	30073
7.39167	30725
7.40000	31363
7.40833	31984
7.41667	32588
7.42500	33181
7.43333	33763
7.44167	34334
7.45000	34894
7.45833	35448
7.46667	35993
7.47500	36522
7.48333	37034
7.49167	37531
7.50000	38009
7.50833	38465
7.51667	38902
7.52500	39325
7.53333	39736
7.54167	40133
7.55000	40506
7.55833	40852
7.56667	41178
7.57500	41487
7.58333	41780
7.59167	42057
7.60000	42317
7.60833	42561
7.61667	42786
7.62500	42994
7.63333	43190
7.64167	43375
7.65000	43553
7.65833	43725
7.66667	43894
7.67500	44064
7.68333	44239
7.69167	44430
7.70000	44654
7.70833	44920
7.71667	45209
7.72500	45498
7.73333	45773
7.74167	46043
7.75000	46316
7.75833	46592
7.76667	46865
7.77500	47133
7.78333	47394
7.79167	47642
7.80000	47872
7.80833	48079
7.81667	48264
7.82500	48430
7.83333	48584
7.84167	48728
7.85000	48869
7.85833	49006
7.86667	49140
7.87500	49277
7.88333	49418
7.89167	49564
7.90000	49716
7.90833	49878
7.91667	50050
7.92500	50228
7.93333	50406
7.94167	50582
7.95000	50750
7.95833	50908
7.96667	51056
7.97500	51202
7.98333	51344
7.99167	51475
8.00000	51595
8.00833	51707
8.01667	51817
8.02500	51919
8.03333	52010
8.04167	52089
8.05000	52158
8.05833	52220
8.06667	52273
8.07500	52318
8.08333	52354
8.09167	52380
8.10000	52397
8.10833	52409
8.11667	52413
8.12500	52409
8.13333	52399
8.14167	52385
8.15000	52367
8.15833	52351
8.16667	52332
8.17500	52309
8.18333	52284
8.19167	52264
8.20000	52250
8.20833	52242
8.21667	52241
8.22500	52247
8.23333	52256
8.24167	52272
8.25000	52297
8.25833	52330
8.26667	52367
8.27500	52403
8.28333	52442
8.29167	52485
8.30000	52531
8.30833	52579
8.31667	52633
8.32500	52690
8.33333	52745
8.34167	52804
8.35000	52866
8.35833	52931
8.36667	52999
8.37500	53067
8.38333	53138
8.39167	53210
8.40000	53284
8.40833	53359
8.41667	53433
8.42500	53505
8.43333	53574
8.44167	53642
8.45000	53713
8.45833	53784
8.46667	53854
8.47500	53920
8.48333	53984
8.49167	54046
8.50000	54101
8.50833	54146
8.51667	54184
8.52500	54221
8.53333	54257
8.54167	54285
8.55000	54307
8.55833	54326
8.56667	54346
8.57500	54369
8.58333	54397
8.59167	54429
8.60000	54456
8.60833	54464
8.61667	54450
8.62500	54418
8.63333	54376
8.64167	54326
8.65000	54274
8.65833	54215
8.66667	54136
8.67500	54028
8.68333	53896
8.69167	53750
8.70000	53592
8.70833	53425
8.71667	53255
8.72500	53083
8.73333	52909
8.74167	52731
8.75000	52547
8.75833	52363
8.76667	52177
8.77500	51992
8.78333	51801
8.79167	51604
8.80000	51404
8.80833	51206
8.81667	51004
8.82500	50793
8.83333	50576
8.84167	50353
8.85000	50125
8.85833	49889
8.86667	49651
8.87500	49412
8.88333	49166
8.89167	48914
8.90000	48657
8.90833	48397
8.91667	48134
8.92500	47867
8.93333	47595
8.94167	47325
8.95000	47058
8.95833	46792
8.96667	46525
8.97500	46253
8.98333	45982
8.99167	45713
9.00000	45446
9.00833	45177
9.01667	44908
9.02500	44640
9.03333	44376
9.04167	44114
9.05000	43856
9.05833	43603
9.06667	43355
9.07500	43113
9.08333	42880
9.09167	42658
9.10000	42448
9.10833	42253
9.11667	42073
9.12500	41905
9.13333	41745
9.14167	41593
9.15000	41449
9.15833	41311
9.16667	41173
9.17500	41029
9.18333	40875
9.19167	40710
9.20000	40529
9.20833	40337
9.21667	40134
9.22500	39918
9.23333	39692
9.24167	39456
9.25000	39208
9.25833	38950
9.26667	38685
9.27500	38418
9.28333	38149
9.29167	37881
9.30000	37614
9.30833	37350
9.31667	37094
9.32500	36849
9.33333	36612
9.34167	36368
9.35000	36113
9.35833	35855
9.36667	35599
9.37500	35347
9.38333	35100
9.39167	34860
9.40000	34626
9.40833	34396
9.41667	34166
9.42500	33937
9.43333	33712
9.44167	33500
9.45000	33303
9.45833	33106
9.46667	32893
9.47500	32661
9.48333	32418
9.49167	32175
9.50000	31937
9.50833	31710
9.51667	31488
9.52500	31268
9.53333	31052
9.54167	30841
9.55000	30632
9.55833	30425
9.56667	30219
9.57500	30015
9.58333	29816
9.59167	29620
9.60000	29423
9.60833	29227
9.61667	29031
9.62500	28835
9.63333	28639
9.64167	28442
9.65000	28243
9.65833	28043
9.66667	27844
9.67500	27651
9.68333	27462
9.69167	27269
9.70000	27071
9.70833	26867
9.71667	26660
9.72500	26450
9.73333	26240
9.74167	26034
9.75000	25828
9.75833	25618
9.76667	25407
9.77500	25199
9.78333	24990
9.79167	24780
9.80000	24570
9.80833	24357
9.81667	24139
9.82500	23920
9.83333	23704
9.84167	23486
9.85000	23267
9.85833	23049
9.86667	22829
9.87500	22609
9.88333	22391
9.89167	22173
9.90000	21953
9.90833	21730
9.91667	21503
9.92500	21274
9.93333	21045
9.94167	20819
9.95000	20592
9.95833	20365
9.96667	20138
9.97500	19906
9.98333	19668
9.99167	19420
10.00000	19165
10.00833	18908
10.01667	18650
10.02500	18394
10.03333	18144
10.04167	17900
10.05000	17655
10.05833	17408
10.06667	17163
10.07500	16929
10.08333	16710
10.09167	16498
10.10000	16280
10.10833	16047
10.11667	15804
10.12500	15560
10.13333	15321
10.14167	15087
10.15000	14855
10.15833	14628
10.16667	14407
10.17500	14186
10.18333	13963
10.19167	13739
10.20000	13520
10.20833	13307
10.21667	13093
10.22500	12876
10.23333	12661
10.24167	12449
10.25000	12236
10.25833	12025
10.26667	11816
10.27500	11605
10.28333	11392
10.29167	11180
10.30000	10981
10.30833	10809
10.31667	10654
10.32500	10486
10.33333	10290
10.34167	10075
10.35000	9856
10.35833	9639
10.36667	9430
10.37500	9236
10.38333	9058
10.39167	8897
10.40000	8754
10.40833	8624
10.41667	8501
10.42500	8380
10.43333	8260
10.44167	8139
10.45000	8020
10.45833	7905
10.46667	7796
10.47500	7694
10.48333	7605
10.49167	7532
10.50000	7473
10.50833	7428
10.51667	7397
10.52500	7377
10.53333	7365
10.54167	7372
10.55000	7403
10.55833	7464
10.56667	7552
10.57500	7667
10.58333	7807
10.59167	7978
10.60000	8186
10.60833	8429
10.61667	8700
10.62500	8987
10.63333	9278
10.64167	9567
10.65000	9850
10.65833	10122
10.66667	10376
10.67500	10604
10.68333	10802
10.69167	10971
10.70000	11107
10.70833	11207
10.71667	11265
10.72500	11278
10.73333	11246
10.74167	11182
10.75000	11088
10.75833	10961
10.76667	10801
10.77500	10619
10.78333	10421
10.79167	10211
10.80000	9992
10.80833	9771
10.81667	9553
10.82500	9335
10.83333	9121
10.84167	8910
10.85000	8706
10.85833	8514
10.86667	8336
10.87500	8168
10.88333	8004
10.89167	7849
10.90000	7704
10.90833	7566
10.91667	7434
10.92500	7309
10.93333	7190
10.94167	7077
10.95000	6974
10.95833	6884
10.96667	6801
10.97500	6721
10.98333	6643
10.99167	6570
11.00000	6505
11.00833	6445
11.01667	6387
11.02500	6331
11.03333	6279
11.04167	6227
11.05000	6185
11.05833	6156
11.06667	6135
11.07500	6115
11.08333	6093
11.09167	6062
11.10000	6023
11.10833	5983
11.11667	5947
11.12500	5919
11.13333	5898
11.14167	5881
11.15000	5866
11.15833	5850
11.16667	5829
11.17500	5806
11.18333	5785
11.19167	5767
11.20000	5752
11.20833	5739
11.21667	5725
11.22500	5711
11.23333	5695
11.24167	5682
11.25000	5669
11.25833	5653
11.26667	5634
11.27500	5615
11.28333	5598
11.29167	5582
11.30000	5566
11.30833	5548
11.31667	5528
11.32500	5510
11.33333	5495
11.34167	5481
11.35000	5466
11.35833	5453
11.36667	5440
11.37500	5426
11.38333	5413
11.39167	5401
11.40000	5387
11.40833	5370
11.41667	5356
11.42500	5345
11.43333	5339
11.44167	5338
11.45000	5337
11.45833	5327
11.46667	5313
11.47500	5295
11.48333	5276
11.49167	5256
11.50000	5241
11.50833	5235
11.51667	5229
11.52500	5221
11.53333	5211
11.54167	5204
11.55000	5201
11.55833	5198
11.56667	5191
11.57500	5182
11.58333	5174
11.59167	5169
11.60000	5164
11.60833	5158
11.61667	5152
11.62500	5148
11.63333	5145
11.64167	5141
11.65000	5136
11.65833	5128
11.66667	5120
11.67500	5110
11.68333	5103
11.69167	5101
11.70000	5105
11.70833	5116
11.71667	5134
11.72500	5146
11.73333	5145
11.74167	5136
11.75000	5124
11.75833	5110
11.76667	5097
11.77500	5085
11.78333	5075
11.79167	5068
11.80000	5064
11.80833	5064
11.81667	5066
11.82500	5069
11.83333	5074
11.84167	5078
11.85000	5088
11.85833	5104
11.86667	5122
11.87500	5145
11.88333	5173
11.89167	5208
11.90000	5250
11.90833	5303
11.91667	5370
11.92500	5452
11.93333	5552
11.94167	5673
11.95000	5812
11.95833	5968
11.96667	6142
11.97500	6336
11.98333	6547
11.99167	6775
12.00000	7018
12.00833	7272
12.01667	7530
12.02500	7786
12.03333	8036
12.04167	8277
12.05000	8507
12.05833	8726
12.06667	8931
12.07500	9107
12.08333	9244
12.09167	9335
12.10000	9382
12.10833	9391
12.11667	9366
12.12500	9309
12.13333	9225
12.14167	9118
12.15000	8991
12.15833	8845
12.16667	8686
12.17500	8518
12.18333	8348
12.19167	8179
12.20000	8013
12.20833	7851
12.21667	7694
12.22500	7546
12.23333	7407
12.24167	7281
12.25000	7169
12.25833	7076
12.26667	7000
12.27500	6939
12.28333	6892
12.29167	6867
12.30000	6871
12.30833	6907
12.31667	6970
12.32500	7056
12.33333	7170
12.34167	7318
12.35000	7504
12.35833	7730
12.36667	7998
12.37500	8310
12.38333	8659
12.39167	9041
12.40000	9456
12.40833	9898
12.41667	10364
12.42500	10844
12.43333	11326
12.44167	11804
12.45000	12273
12.45833	12728
12.46667	13154
12.47500	13526
12.48333	13829
12.49167	14061
12.50000	14221
12.50833	14312
12.51667	14338
12.52500	14300
12.53333	14203
12.54167	14052
12.55000	13853
12.55833	13610
12.56667	13329
12.57500	13016
12.58333	12681
12.59167	12334
12.60000	11983
12.60833	11635
12.61667	11294
12.62500	10966
12.63333	10649
12.64167	10344
12.65000	10055
12.65833	9787
12.66667	9542
12.67500	9325
12.68333	9144
12.69167	8991
12.70000	8853
12.70833	8716
12.71667	8568
12.72500	8407
12.73333	8237
12.74167	8068
12.75000	7908
12.75833	7761
12.76667	7626
12.77500	7502
12.78333	7390
12.79167	7281
12.80000	7168
12.80833	7051
12.81667	6936
12.82500	6827
12.83333	6724
12.84167	6624
12.85000	6526
12.85833	6429
12.86667	6333
12.87500	6244
12.88333	6163
12.89167	6088
12.90000	6011
12.90833	5930
12.91667	5851
12.92500	5784
12.93333	5757
12.94167	5800
12.95000	5873
12.95833	5894
12.96667	5827
12.97500	5704
12.98333	5570
12.99167	5449
13.00000	5352
13.00833	5285
13.01667	5246
13.02500	5228
13.03333	5228
13.04167	5246
13.05000	5287
13.05833	5352
13.06667	5435
13.07500	5533
13.08333	5647
13.09167	5782
13.10000	5941
13.10833	6120
13.11667	6319
13.12500	6540
13.13333	6782
13.14167	7038
13.15000	7302
13.15833	7568
13.16667	7826
13.17500	8073
13.18333	8308
13.19167	8532
13.20000	8738
13.20833	8921
13.21667	9089
13.22500	9246
13.23333	9394
13.24167	9538
13.25000	9683
13.25833	9826
13.26667	9967
13.27500	10108
13.28333	10250
13.29167	10393
13.30000	10537
13.30833	10680
13.31667	10824
13.32500	10963
13.33333	11091
13.34167	11208
13.35000	11316
13.35833	11415
13.36667	11507
13.37500	11591
13.38333	11662
13.39167	11718
13.40000	11765
13.40833	11801
13.41667	11825
13.42500	11839
13.43333	11843
13.44167	11837
13.45000	11820
13.45833	11794
13.46667	11759
13.47500	11716
13.48333	11664
13.49167	11605
13.50000	11538
13.50833	11466
13.51667	11392
13.52500	11316
13.53333	11239
13.54167	11165
13.55000	11089
13.55833	11010
13.56667	10927
13.57500	10843
13.58333	10756
13.59167	10662
13.60000	10561
13.60833	10457
13.61667	10347
13.62500	10230
13.63333	10105
13.64167	9972
13.65000	9829
13.65833	9674
13.66667	9510
13.67500	9339
13.68333	9163
13.69167	8976
13.70000	8778
13.70833	8571
13.71667	8364
13.72500	8162
13.73333	7966
13.74167	7774
13.75000	7587
13.75833	7408
13.76667	7243
13.77500	7089
13.78333	6937
13.79167	6784
13.80000	6631
13.80833	6486
13.81667	6354
13.82500	6227
13.83333	6096
13.84167	5957
13.85000	5812
13.85833	5668
13.86667	5532
13.87500	5410
13.88333	5300
13.89167	5200
13.90000	5109
13.90833	5026
13.91667	4951
13.92500	4884
13.93333	4820
13.94167	4759
13.95000	4703
13.95833	4652
13.96667	4604
13.97500	4562
13.98333	4526
13.99167	4497
14.00000	4476
14.00833	4454
14.01667	4425
14.02500	4395
14.03333	4365
14.04167	4335
14.05000	4308
14.05833	4282
14.06667	4260
14.07500	4248
14.08333	4241
14.09167	4232
14.10000	4220
14.10833	4205
14.11667	4191
14.12500	4179
14.13333	4169
14.14167	4160
14.15000	4150
14.15833	4142
14.16667	4131
14.17500	4115
14.18333	4096
14.19167	4081
14.20000	4074
14.20833	4071
14.21667	4071
14.22500	4071
14.23333	4069
14.24167	4063
14.25000	4052
14.25833	4039
14.26667	4027
14.27500	4021
14.28333	4021
14.29167	4020
14.30000	4011
14.30833	3998
14.31667	3986
14.32500	3976
14.33333	3967
14.34167	3958
14.35000	3949
14.35833	3941
14.36667	3936
14.37500	3934
14.38333	3936
14.39167	3940
14.40000	3944
14.40833	3943
14.41667	3939
14.42500	3930
14.43333	3919
14.44167	3909
14.45000	3901
14.45833	3897
14.46667	3899
14.47500	3904
14.48333	3907
14.49167	3912
14.50000	3916
14.50833	3917
14.51667	3915
14.52500	3913
14.53333	3915
14.54167	3920
14.55000	3930
14.55833	3939
14.56667	3946
14.57500	3950
14.58333	3954
14.59167	3959
14.60000	3962
14.60833	3967
14.61667	3972
14.62500	3975
14.63333	3978
14.64167	3980
14.65000	3980
14.65833	3979
14.66667	3979
14.67500	3979
14.68333	3977
14.69167	3972
14.70000	3968
14.70833	3965
14.71667	3960
14.72500	3954
14.73333	3949
14.74167	3943
14.75000	3936
14.75833	3930
14.76667	3922
14.77500	3911
14.78333	3896
14.79167	3882
14.80000	3870
14.80833	3855
14.81667	3840
14.82500	3826
14.83333	3813
14.84167	3803
14.85000	3798
14.85833	3791
14.86667	3785
14.87500	3778
14.88333	3768
14.89167	3751
14.90000	3732
14.90833	3718
14.91667	3713
14.92500	3712
14.93333	3708
14.94167	3698
14.95000	3684
14.95833	3673
14.96667	3667
14.97500	3664
14.98333	3663
14.99167	3660
15.00000	3656
15.00833	3653
15.01667	3654
15.02500	3659
15.03333	3667
15.04167	3674
15.05000	3677
15.05833	3678
15.06667	3677
15.07500	3676
15.08333	3674
15.09167	3673
15.10000	3673
15.10833	3673
15.11667	3671
15.12500	3670
15.13333	3673
15.14167	3677
15.15000	3679
15.15833	3677
15.16667	3669
15.17500	3661
15.18333	3657
15.19167	3654
15.20000	3650
15.20833	3641
15.21667	3628
15.22500	3613
15.23333	3599
15.24167	3588
15.25000	3578
15.25833	3568
15.26667	3559
15.27500	3550
15.28333	3539
15.29167	3530
15.30000	3523
15.30833	3514
15.31667	3503
15.32500	3494
15.33333	3484
15.34167	3470
15.35000	3456
15.35833	3444
15.36667	3431
15.37500	3419
15.38333	3410
15.39167	3404
15.40000	3395
15.40833	3382
15.41667	3370
15.42500	3357
15.43333	3342
15.44167	3328
15.45000	3319
15.45833	3313
15.46667	3307
15.47500	3300
15.48333	3293
15.49167	3282
15.50000	3271
15.50833	3264
15.51667	3259
15.52500	3251
15.53333	3241
15.54167	3232
15.55000	3226
15.55833	3220
15.56667	3210
15.57500	3197
15.58333	3185
15.59167	3176
15.60000	3174
15.60833	3177
15.61667	3180
15.62500	3178
15.63333	3172
15.64167	3164
15.65000	3156
15.65833	3152
15.66667	3151
15.67500	3150
15.68333	3149
15.69167	3148
15.70000	3149
15.70833	3150
15.71667	3147
15.72500	3143
15.73333	3141
15.74167	3143
15.75000	3148
15.75833	3148
15.76667	3144
15.77500	3143
15.78333	3148
15.79167	3156
15.80000	3164
15.80833	3169
15.81667	3175
15.82500	3184
15.83333	3194
15.84167	3201
15.85000	3205
15.85833	3209
15.86667	3212
15.87500	3217
15.88333	3225
15.89167	3231
15.90000	3234
15.90833	3233
15.91667	3234
15.92500	3238
15.93333	3240
15.94167	3238
15.95000	3233
15.95833	3230
15.96667	3229
15.97500	3233
15.98333	3239
15.99167	3240
16.00000	3230
16.00833	3212
16.01667	3193
16.02500	3178
16.03333	3168
16.04167	3157
16.05000	3144
16.05833	3130
16.06667	3114
16.07500	3096
16.08333	3080
16.09167	3067
16.10000	3059
16.10833	3057
16.11667	3060
16.12500	3061
16.13333	3055
16.14167	3045
16.15000	3030
16.15833	3014
16.16667	2999
16.17500	2985
16.18333	2970
16.19167	2956
16.20000	2950
16.20833	2949
16.21667	2950
16.22500	2947
16.23333	2937
16.24167	2924
16.25000	2912
16.25833	2903
16.26667	2894
16.27500	2885
16.28333	2875
16.29167	2866
16.30000	2861
16.30833	2858
16.31667	2853
16.32500	2845
16.33333	2838
16.34167	2835
16.35000	2832
16.35833	2830
16.36667	2828
16.37500	2823
16.38333	2813
16.39167	2804
16.40000	2797
16.40833	2793
16.41667	2794
16.42500	2795
16.43333	2793
16.44167	2789
16.45000	2786
16.45833	2780
16.46667	2773
16.47500	2765
16.48333	2761
16.49167	2761
16.50000	2759
16.50833	2753
16.51667	2742
16.52500	2736
16.53333	2739
16.54167	2745
16.55000	2747
16.55833	2743
16.56667	2739
16.57500	2736
16.58333	2742
16.59167	2758
16.60000	2770
16.60833	2766
16.61667	2754
16.62500	2739
16.63333	2724
16.64167	2710
16.65000	2698
16.65833	2692
16.66667	2694
16.67500	2699
16.68333	2699
16.69167	2694
16.70000	2689
16.70833	2688
16.71667	2690
16.72500	2690
16.73333	2688
16.74167	2685
16.75000	2683
16.75833	2680
16.76667	2674
16.77500	2667
16.78333	2661
16.79167	2654
16.80000	2650
16.80833	2648
16.81667	2645
16.82500	2640
16.83333	2636
16.84167	2635
16.85000	2636
16.85833	2638
16.86667	2637
16.87500	2630
16.88333	2621
16.89167	2616
16.90000	2613
16.90833	2607
16.91667	2601
16.92500	2598
16.93333	2594
16.94167	2590
16.95000	2588
16.95833	2585
16.96667	2585
16.97500	2590
16.98333	2595
16.99167	2597
17.00000	2597
17.00833	2597
17.01667	2595
17.02500	2589
17.03333	2582
17.04167	2577
17.05000	2572
17.05833	2565
17.06667	2559
17.07500	2554
17.08333	2549
17.09167	2545
17.10000	2540
17.10833	2534
17.11667	2529
17.12500	2527
17.13333	2526
17.14167	2524
17.15000	2521
17.15833	2516
17.16667	2510
17.17500	2503
17.18333	2500
17.19167	2498
17.20000	2495
17.20833	2492
17.21667	2486
17.22500	2479
17.23333	2471
17.24167	2464
17.25000	2458
17.25833	2448
17.26667	2437
17.27500	2427
17.28333	2423
17.29167	2430
17.30000	2442
17.30833	2448
17.31667	2449
17.32500	2444
17.33333	2433
17.34167	2421
17.35000	2413
17.35833	2405
17.36667	2396
17.37500	2388
17.38333	2383
17.39167	2379
17.40000	2379
17.40833	2380
17.41667	2376
17.42500	2369
17.43333	2361
17.44167	2356
17.45000	2352
17.45833	2348
17.46667	2344
17.47500	2338
17.48333	2332
17.49167	2326
17.50000	2324
17.50833	2325
17.51667	2324
17.52500	2318
17.53333	2307
17.54167	2299
17.55000	2297
17.55833	2293
17.56667	2288
17.57500	2282
17.58333	2275
17.59167	2268
17.60000	2262
17.60833	2258
17.61667	2256
17.62500	2257
17.63333	2259
17.64167	2259
17.65000	2257
17.65833	2253
17.66667	2245
17.67500	2238
17.68333	2240
17.69167	2243
17.70000	2239
17.70833	2231
17.71667	2225
17.72500	2220
17.73333	2219
17.74167	2217
17.75000	2216
17.75833	2215
17.76667	2213
17.77500	2209
17.78333	2201
17.79167	2190
17.80000	2181
17.80833	2174
17.81667	2166
17.82500	2160
17.83333	2157
17.84167	2155
17.85000	2153
17.85833	2155
17.86667	2158
17.87500	2159
17.88333	2158
17.89167	2157
17.90000	2157
17.90833	2161
17.91667	2167
17.92500	2173
17.93333	2174
17.94167	2168
17.95000	2161
17.95833	2157
17.96667	2153
17.97500	2147
17.98333	2140
17.99167	2134
18.00000	2129

[LC Chromatogram(Detector A-Ch2)]
Interval(msec)	500
# of Points	2161
Start Time(min)	0.000
End Time(min)	18.000
Intensity Units	mAU
Intensity Multiplier	0.001
Wavelength(nm)	254nm
R.Time (min)	Intensity
0.00000	1917
0.00833	1917
0.01667	1914
0.02500	1911
0.03333	1910
0.04167	1910
0.05000	1910
0.05833	1910
0.06667	1911
0.07500	1909
0.08333	1906
0.09167	1904
0.10000	1906
0.10833	1911
0.11667	1918
0.12500	1924
0.13333	1925
0.14167	1925
0.15000	1925
0.15833	1927
0.16667	1928
0.17500	1929
0.18333	1926
0.19167	1924
0.20000	1923
0.20833	1922
0.21667	1921
0.22500	1919
0.23333	1918
0.24167	1916
0.25000	1915
0.25833	1913
0.26667	1909
0.27500	1906
0.28333	1904
0.29167	1902
0.30000	1900
0.30833	1899
0.31667	1903
0.32500	1911
0.33333	1917
0.34167	1919
0.35000	1917
0.35833	1913
0.36667	1909
0.37500	1905
0.38333	1902
0.39167	1900
0.40000	1898
0.40833	1894
0.41667	1890
0.42500	1885
0.43333	1881
0.44167	1878
0.45000	1877
0.45833	1878
0.46667	1881
0.47500	1884
0.48333	1882
0.49167	1880
0.50000	1880
0.50833	1881
0.51667	1882
0.52500	1880
0.53333	1876
0.54167	1872
0.55000	1871
0.55833	1872
0.56667	1871
0.57500	1871
0.58333	1873
0.59167	1875
0.60000	1875
0.60833	1873
0.61667	1871
0.62500	1871
0.63333	1876
0.64167	1880
0.65000	1877
0.65833	1871
0.66667	1866
0.67500	1863
0.68333	1862
0.69167	1860
0.70000	1858
0.70833	1856
0.71667	1853
0.72500	1849
0.73333	1846
0.74167	1843
0.75000	1841
0.75833	1839
0.76667	1836
0.77500	1831
0.78333	1828
0.79167	1825
0.80000	1822
0.80833	1819
0.81667	1817
0.82500	1818
0.83333	1820
0.84167	1818
0.85000	1813
0.85833	1806
0.86667	1800
0.87500	1795
0.88333	1792
0.89167	1786
0.90000	1781
0.90833	1776
0.91667	1773
0.92500	1768
0.93333	1761
0.94167	1752
0.95000	1741
0.95833	1727
0.96667	1713
0.97500	1698
0.98333	1685
0.99167	1671
1.00000	1658
1.00833	1645
1.01667	1633
1.02500	1620
1.03333	1605
1.04167	1589
1.05000	1573
1.05833	1559
1.06667	1547
1.07500	1534
1.08333	1518
1.09167	1501
1.10000	1485
1.10833	1471
1.11667	1457
1.12500	1443
1.13333	1429
1.14167	1416
1.15000	1403
1.15833	1392
1.16667	1384
1.17500	1375
1.18333	1365
1.19167	1356
1.20000	1349
1.20833	1344
1.21667	1341
1.22500	1339
1.23333	1341
1.24167	1354
1.25000	1376
1.25833	1393
1.26667	1401
1.27500	1402
1.28333	1403
1.29167	1408
1.30000	1427
1.30833	1466
1.31667	1512
1.32500	1549
1.33333	1575
1.34167	1597
1.35000	1622
1.35833	1652
1.36667	1688
1.37500	1729
1.38333	1779
1.39167	1836
1.40000	1899
1.40833	1966
1.41667	2039
1.42500	2119
1.43333	2208
1.44167	2306
1.45000	2409
1.45833	2514
1.46667	2624
1.47500	2738
1.48333	2857
1.49167	2979
1.50000	3106
1.50833	3239
1.51667	3377
1.52500	3518
1.53333	3662
1.54167	3807
1.55000	3954
1.55833	4102
1.56667	4247
1.57500	4391
1.58333	4535
1.59167	4680
1.60000	4825
1.60833	4967
1.61667	5104
1.62500	5236
1.63333	5362
1.64167	5483
1.65000	5595
1.65833	5701
1.66667	5801
1.67500	5894
1.68333	5980
1.69167	6058
1.70000	6127
1.70833	6185
1.71667	6233
1.72500	6273
1.73333	6303
1.74167	6323
1.75000	6334
1.75833	6338
1.76667	6334
1.77500	6321
1.78333	6298
1.79167	6267
1.80000	6227
1.80833	6180
1.81667	6124
1.82500	6062
1.83333	5994
1.84167	5922
1.85000	5846
1.85833	5765
1.86667	5677
1.87500	5586
1.88333	5493
1.89167	5396
1.90000	5296
1.90833	5192
1.91667	5086
1.92500	4980
1.93333	4874
1.94167	4767
1.95000	4660
1.95833	4555
1.96667	4450
1.97500	4346
1.98333	4241
1.99167	4136
2.00000	4035
2.00833	3936
2.01667	3838
2.02500	3742
2.03333	3649
2.04167	3560
2.05000	3477
2.05833	3396
2.06667	3314
2.07500	3232
2.08333	3154
2.09167	3079
2.10000	3005
2.10833	2933
2.11667	2865
2.12500	2800
2.13333	2737
2.14167	2676
2.15000	2616
2.15833	2559
2.16667	2506
2.17500	2456
2.18333	2408
2.19167	2361
2.20000	2315
2.20833	2270
2.21667	2228
2.22500	2190
2.23333	2155
2.24167	2120
2.25000	2086
2.25833	2055
2.26667	2026
2.27500	1996
2.28333	1966
2.29167	1936
2.30000	1909
2.30833	1885
2.31667	1863
2.32500	1841
2.33333	1820
2.34167	1800
2.35000	1783
2.35833	1768
2.36667	1752
2.37500	1737
2.38333	1724
2.39167	1711
2.40000	1697
2.40833	1685
2.41667	1673
2.42500	1660
2.43333	1649
2.44167	1639
2.45000	1630
2.45833	1623
2.46667	1616
2.47500	1608
2.48333	1601
2.49167	1594
2.50000	1586
2.50833	1580
2.51667	1577
2.52500	1576
2.53333	1574
2.54167	1571
2.55000	1567
2.55833	1563
2.56667	1557
2.57500	1552
2.58333	1549
2.59167	1546
2.60000	1544
2.60833	1542
2.61667	1538
2.62500	1535
2.63333	1533
2.64167	1529
2.65000	1524
2.65833	1520
2.66667	1517
2.67500	1514
2.68333	1510
2.69167	1508
2.70000	1506
2.70833	1507
2.71667	1508
2.72500	1510
2.73333	1511
2.74167	1511
2.75000	1511
2.75833	1511
2.76667	1510
2.77500	1508
2.78333	1507
2.79167	1506
2.80000	1506
2.80833	1506
2.81667	1508
2.82500	1511
2.83333	1514
2.84167	1515
2.85000	1513
2.85833	1511
2.86667	1510
2.87500	1511
2.88333	1511
2.89167	1511
2.90000	1512
2.90833	1514
2.91667	1517
2.92500	1520
2.93333	1523
2.94167	1524
2.95000	1525
2.95833	1525
2.96667	1525
2.97500	1525
2.98333	1527
2.99167	1532
3.00000	1537
3.00833	1540
3.01667	1540
3.02500	1540
3.03333	1541
3.04167	1545
3.05000	1548
3.05833	1551
3.06667	1552
3.07500	1554
3.08333	1556
3.09167	1560
3.10000	1562
3.10833	1565
3.11667	1569
3.12500	1573
3.13333	1576
3.14167	1580
3.15000	1586
3.15833	1591
3.16667	1594
3.17500	1598
3.18333	1603
3.19167	1609
3.20000	1613
3.20833	1616
3.21667	1618
3.22500	1622
3.23333	1625
3.24167	1629
3.25000	1631
3.25833	1634
3.26667	1637
3.27500	1640
3.28333	1643
3.29167	1644
3.30000	1645
3.30833	1648
3.31667	1651
3.32500	1653
3.33333	1655
3.34167	1658
3.35000	1662
3.35833	1667
3.36667	1672
3.37500	1676
3.38333	1681
3.39167	1688
3.40000	1695
3.40833	1700
3.41667	1702
3.42500	1704
3.43333	1709
3.44167	1714
3.45000	1719
3.45833	1723
3.46667	1729
3.47500	1735
3.48333	1741
3.49167	1744
3.50000	1745
3.50833	1746
3.51667	1748
3.52500	1751
3.53333	1754
3.54167	1756
3.55000	1758
3.55833	1760
3.56667	1763
3.57500	1766
3.58333	1769
3.59167	1774
3.60000	1780
3.60833	1786
3.61667	1792
3.62500	1798
3.63333	1806
3.64167	1822
3.65000	1849
3.65833	1879
3.66667	1914
3.67500	1960
3.68333	1996
3.69167	1998
3.70000	1975
3.70833	1944
3.71667	1916
3.72500	1895
3.73333	1885
3.74167	1882
3.75000	1879
3.75833	1873
3.76667	1865
3.77500	1857
3.78333	1852
3.79167	1851
3.80000	1852
3.80833	1855
3.81667	1857
3.82500	1858
3.83333	1858
3.84167	1859
3.85000	1860
3.85833	1860
3.86667	1861
3.87500	1861
3.88333	1860
3.89167	1860
3.90000	1861
3.90833	1862
3.91667	1864
3.92500	1868
3.93333	1875
3.94167	1881
3.95000	1884
3.95833	1885
3.96667	1884
3.97500	1883
3.98333	1883
3.99167	1883
4.00000	1882
4.00833	1882
4.01667	1882
4.02500	1882
4.03333	1882
4.04167	1883
4.05000	1886
4.05833	1894
4.06667	1906
4.07500	1918
4.08333	1927
4.09167	1936
4.10000	1952
4.10833	1972
4.11667	1986
4.12500	1989
4.13333	1986
4.14167	1983
4.15000	1982
4.15833	1985
4.16667	1993
4.17500	2004
4.18333	2019
4.19167	2034
4.20000	2050
4.20833	2069
4.21667	2093
4.22500	2119
4.23333	2145
4.24167	2175
4.25000	2209
4.25833	2251
4.26667	2301
4.27500	2360
4.28333	2427
4.29167	2508
4.30000	2610
4.30833	2735
4.31667	2886
4.32500	3064
4.33333	3270
4.34167	3505
4.35000	3772
4.35833	4067
4.36667	4391
4.37500	4742
4.38333	5118
4.39167	5516
4.40000	5931
4.40833	6361
4.41667	6803
4.42500	7255
4.43333	7711
4.44167	8167
4.45000	8620
4.45833	9068
4.46667	9507
4.47500	9936
4.48333	10352
4.49167	10752
4.50000	11138
4.50833	11506
4.51667	11854
4.52500	12182
4.53333	12484
4.54167	12760
4.55000	13011
4.55833	13237
4.56667	13437
4.57500	13603
4.58333	13736
4.59167	13839
4.60000	13916
4.60833	13969
4.61667	13998
4.62500	14002
4.63333	13978
4.64167	13930
4.65000	13862
4.65833	13777
4.66667	13679
4.67500	13570
4.68333	13449
4.69167	13316
4.70000	13173
4.70833	13021
4.71667	12865
4.72500	12709
4.73333	12556
4.74167	12405
4.75000	12261
4.75833	12130
4.76667	12010
4.77500	11885
4.78333	11747
4.79167	11601
4.80000	11456
4.80833	11318
4.81667	11187
4.82500	11067
4.83333	10979
4.84167	10945
4.85000	10949
4.85833	10932
4.86667	10856
4.87500	10731
4.88333	10586
4.89167	10447
4.90000	10329
4.90833	10231
4.91667	10150
4.92500	10080
4.93333	10021
4.94167	9972
4.95000	9929
4.95833	9891
4.96667	9856
4.97500	9822
4.98333	9790
4.99167	9763
5.00000	9741
5.00833	9724
5.01667	9711
5.02500	9703
5.03333	9700
5.04167	9702
5.05000	9709
5.05833	9722
5.06667	9740
5.07500	9764
5.08333	9792
5.09167	9824
5.10000	9857
5.10833	9896
5.11667	9941
5.12500	9989
5.13333	10039
5.14167	10091
5.15000	10150
5.15833	10217
5.16667	10289
5.17500	10359
5.18333	10427
5.19167	10496
5.20000	10570
5.20833	10648
5.21667	10734
5.22500	10830
5.23333	10932
5.24167	11028
5.25000	11118
5.25833	11208
5.26667	11302
5.27500	11402
5.28333	11505
5.29167	11611
5.30000	11722
5.30833	11837
5.31667	11956
5.32500	12078
5.33333	12198
5.34167	12321
5.35000	12449
5.35833	12579
5.36667	12710
5.37500	12842
5.38333	12978
5.39167	13115
5.40000	13255
5.40833	13399
5.41667	13545
5.42500	13692
5.43333	13839
5.44167	13987
5.45000	14137
5.45833	14289
5.46667	14444
5.47500	14602
5.48333	14765
5.49167	14931
5.50000	15099
5.50833	15271
5.51667	15449
5.52500	15631
5.53333	15817
5.54167	16008
5.55000	16205
5.55833	16410
5.56667	16622
5.57500	16838
5.58333	17058
5.59167	17281
5.60000	17508
5.60833	17740
5.61667	17976
5.62500	18218
5.63333	18464
5.64167	18710
5.65000	18952
5.65833	19192
5.66667	19430
5.67500	19665
5.68333	19897
5.69167	20126
5.70000	20352
5.70833	20576
5.71667	20798
5.72500	21018
5.73333	21234
5.74167	21441
5.75000	21635
5.75833	21818
5.76667	21990
5.77500	22153
5.78333	22311
5.79167	22470
5.80000	22646
5.80833	22863
5.81667	23152
5.82500	23548
5.83333	24086
5.84167	24788
5.85000	25658
5.85833	26673
5.86667	27779
5.87500	28890
5.88333	29905
5.89167	30724
5.90000	31258
5.90833	31446
5.91667	31262
5.92500	30719
5.93333	29861
5.94167	28754
5.95000	27477
5.95833	26110
5.96667	24729
5.97500	23408
5.98333	22210
5.99167	21195
6.00000	20415
6.00833	19910
6.01667	19708
6.02500	19837
6.03333	20312
6.04167	21136
6.05000	22320
6.05833	23883
6.06667	25835
6.07500	28185
6.08333	30940
6.09167	34101
6.10000	37664
6.10833	41623
6.11667	45971
6.12500	50695
6.13333	55772
6.14167	61164
6.15000	66824
6.15833	72704
6.16667	78755
6.17500	84922
6.18333	91153
6.19167	97401
6.20000	103621
6.20833	109777
6.21667	115844
6.22500	121797
6.23333	127610
6.24167	133269
6.25000	138773
6.25833	144129
6.26667	149379
6.27500	154783
6.28333	160916
6.29167	167235
6.30000	170146
6.30833	165012
6.31667	150654
6.32500	130082
6.33333	107587
6.34167	86323
6.35000	67797
6.35833	52369
6.36667	39860
6.37500	29913
6.38333	22139
6.39167	16166
6.40000	11655
6.40833	8315
6.41667	5917
6.42500	4308
6.43333	3389
6.44167	3097
6.45000	3401
6.45833	4246
6.46667	5513
6.47500	7037
6.48333	8626
6.49167	10076
6.50000	11209
6.50833	11910
6.51667	12144
6.52500	11943
6.53333	11395
6.54167	10609
6.55000	9690
6.55833	8721
6.56667	7765
6.57500	6863
6.58333	6039
6.59167	5302
6.60000	4651
6.60833	4079
6.61667	3587
6.62500	3170
6.63333	2807
6.64167	2470
6.65000	2151
6.65833	1849
6.66667	1571
6.67500	1322
6.68333	1103
6.69167	913
6.70000	751
6.70833	615
6.71667	501
6.72500	405
6.73333	324
6.74167	259
6.75000	209
6.75833	172
6.76667	146
6.77500	129
6.78333	119
6.79167	115
6.80000	118
6.80833	129
6.81667	145
6.82500	164
6.83333	183
6.84167	203
6.85000	226
6.85833	253
6.86667	284
6.87500	318
6.88333	353
6.89167	387
6.90000	422
6.90833	458
6.91667	497
6.92500	541
6.93333	587
6.94167	633
6.95000	678
6.95833	724
6.96667	772
6.97500	824
6.98333	879
6.99167	939
7.00000	999
7.00833	1061
7.01667	1126
7.02500	1189
7.03333	1251
7.04167	1311
7.05000	1373
7.05833	1439
7.06667	1507
7.07500	1578
7.08333	1649
7.09167	1718
7.10000	1788
7.10833	1862
7.11667	1941
7.12500	2022
7.13333	2103
7.14167	2185
7.15000	2267
7.15833	2351
7.16667	2436
7.17500	2521
7.18333	2606
7.19167	2692
7.20000	2777
7.20833	2863
7.21667	2951
7.22500	3044
7.23333	3139
7.24167	3234
7.25000	3331
7.25833	3427
7.26667	3522
7.27500	3616
7.28333	3711
7.29167	3807
7.30000	3907
7.30833	4010
7.31667	4117
7.32500	4225
7.33333	4333
7.34167	4440
7.35000	4544
7.35833	4645
7.36667	4745
7.37500	4845
7.38333	4945
7.39167	5044
7.40000	5141
7.40833	5234
7.41667	5322
7.42500	5408
7.43333	5493
7.44167	5573
7.45000	5648
7.45833	5721
7.46667	5790
7.47500	5857
7.48333	5920
7.49167	5979
7.50000	6033
7.50833	6083
7.51667	6131
7.52500	6178
7.53333	6227
7.54167	6276
7.55000	6315
7.55833	6347
7.56667	6377
7.57500	6404
7.58333	6429
7.59167	6451
7.60000	6470
7.60833	6486
7.61667	6499
7.62500	6511
7.63333	6521
7.64167	6526
7.65000	6529
7.65833	6533
7.66667	6536
7.67500	6539
7.68333	6541
7.69167	6546
7.70000	6571
7.70833	6618
7.71667	6667
7.72500	6697
7.73333	6704
7.74167	6694
7.75000	6679
7.75833	6667
7.76667	6659
7.77500	6657
7.78333	6661
7.79167	6671
7.80000	6681
7.80833	6690
7.81667	6699
7.82500	6710
7.83333	6721
7.84167	6733
7.85000	6747
7.85833	6764
7.86667	6780
7.87500	6795
7.88333	6812
7.89167	6830
7.90000	6851
7.90833	6872
7.91667	6896
7.92500	6923
7.93333	6952
7.94167	6979
7.95000	7004
7.95833	7024
7.96667	7040
7.97500	7054
7.98333	7068
7.99167	7080
8.00000	7090
8.00833	7099
8.01667	7106
8.02500	7112
8.03333	7117
8.04167	7122
8.05000	7126
8.05833	7126
8.06667	7121
8.07500	7116
8.08333	7111
8.09167	7105
8.10000	7097
8.10833	7089
8.11667	7080
8.12500	7068
8.13333	7053
8.14167	7037
8.15000	7021
8.15833	7005
8.16667	6988
8.17500	6969
8.18333	6949
8.19167	6929
8.20000	6910
8.20833	6892
8.21667	6876
8.22500	6858
8.23333	6839
8.24167	6822
8.25000	6807
8.25833	6795
8.26667	6782
8.27500	6770
8.28333	6762
8.29167	6757
8.30000	6753
8.30833	6748
8.31667	6742
8.32500	6735
8.33333	6728
8.34167	6724
8.35000	6725
8.35833	6726
8.36667	6727
8.37500	6725
8.38333	6722
8.39167	6719
8.40000	6717
8.40833	6716
8.41667	6716
8.42500	6716
8.43333	6715
8.44167	6715
8.45000	6716
8.45833	6720
8.46667	6725
8.47500	6730
8.48333	6735
8.49167	6738
8.50000	6739
8.50833	6734
8.51667	6729
8.52500	6727
8.53333	6727
8.54167	6726
8.55000	6722
8.55833	6717
8.56667	6714
8.57500	6716
8.58333	6724
8.59167	6739
8.60000	6749
8.60833	6747
8.61667	6735
8.62500	6716
8.63333	6698
8.64167	6683
8.65000	6673
8.65833	6663
8.66667	6648
8.67500	6621
8.68333	6587
8.69167	6548
8.70000	6506
8.70833	6463
8.71667	6421
8.72500	6379
8.73333	6339
8.74167	6298
8.75000	6260
8.75833	6222
8.76667	6182
8.77500	6141
8.78333	6100
8.79167	6060
8.80000	6021
8.80833	5984
8.81667	5942
8.82500	5893
8.83333	5841
8.84167	5790
8.85000	5739
8.85833	5687
8.86667	5637
8.87500	5589
8.88333	5539
8.89167	5485
8.90000	5428
8.90833	5372
8.91667	5317
8.92500	5261
8.93333	5204
8.94167	5149
8.95000	5097
8.95833	5047
8.96667	4996
8.97500	4942
8.98333	4886
8.99167	4831
9.00000	4777
9.00833	4725
9.01667	4675
9.02500	4622
9.03333	4569
9.04167	4517
9.05000	4467
9.05833	4417
9.06667	4367
9.07500	4318
9.08333	4271
9.09167	4226
9.10000	4182
9.10833	4139
9.11667	4097
9.12500	4059
9.13333	4021
9.14167	3983
9.15000	3945
9.15833	3909
9.16667	3874
9.17500	3839
9.18333	3804
9.19167	3768
9.20000	3730
9.20833	3692
9.21667	3653
9.22500	3613
9.23333	3574
9.24167	3535
9.25000	3495
9.25833	3455
9.26667	3415
9.27500	3374
9.28333	3333
9.29167	3291
9.30000	3250
9.30833	3213
9.31667	3182
9.32500	3158
9.33333	3134
9.34167	3102
9.35000	3063
9.35833	3021
9.36667	2980
9.37500	2939
9.38333	2900
9.39167	2864
9.40000	2828
9.40833	2795
9.41667	2764
9.42500	2734
9.43333	2710
9.44167	2699
9.45000	2698
9.45833	2692
9.46667	2670
9.47500	2632
9.48333	2588
9.49167	2542
9.50000	2499
9.50833	2461
9.51667	2427
9.52500	2395
9.53333	2364
9.54167	2333
9.55000	2301
9.55833	2269
9.56667	2238
9.57500	2210
9.58333	2183
9.59167	2157
9.60000	2128
9.60833	2099
9.61667	2069
9.62500	2040
9.63333	2010
9.64167	1980
9.65000	1949
9.65833	1918
9.66667	1887
9.67500	1859
9.68333	1832
9.69167	1806
9.70000	1777
9.70833	1745
9.71667	1711
9.72500	1677
9.73333	1644
9.74167	1613
9.75000	1583
9.75833	1551
9.76667	1519
9.77500	1487
9.78333	1455
9.79167	1423
9.80000	1390
9.80833	1357
9.81667	1322
9.82500	1287
9.83333	1255
9.84167	1224
9.85000	1194
9.85833	1164
9.86667	1135
9.87500	1104
9.88333	1072
9.89167	1041
9.90000	1012
9.90833	983
9.91667	952
9.92500	921
9.93333	892
9.94167	865
9.95000	839
9.95833	813
9.96667	789
9.97500	766
9.98333	738
9.99167	703
10.00000	665
10.00833	627
10.01667	588
10.02500	551
10.03333	522
10.04167	497
10.05000	469
10.05833	435
10.06667	398
10.07500	366
10.08333	344
10.09167	328
10.10000	306
10.10833	274
10.11667	237
10.12500	198
10.13333	161
10.14167	124
10.15000	90
10.15833	60
10.16667	32
10.17500	5
10.18333	-22
10.19167	-49
10.20000	-75
10.20833	-98
10.21667	-120
10.22500	-142
10.23333	-163
10.24167	-182
10.25000	-198
10.25833	-209
10.26667	-217
10.27500	-224
10.28333	-232
10.29167	-233
10.30000	-217
10.30833	-173
10.31667	-116
10.32500	-71
10.33333	-50
10.34167	-43
10.35000	-41
10.35833	-38
10.36667	-30
10.37500	-15
10.38333	6
10.39167	33
10.40000	64
10.40833	95
10.41667	121
10.42500	141
10.43333	150
10.44167	150
10.45000	139
10.45833	120
10.46667	97
10.47500	72
10.48333	46
10.49167	20
10.50000	-11
10.50833	-44
10.51667	-76
10.52500	-112
10.53333	-157
10.54167	-208
10.55000	-256
10.55833	-300
10.56667	-341
10.57500	-383
10.58333	-424
10.59167	-460
10.60000	-489
10.60833	-509
10.61667	-524
10.62500	-536
10.63333	-550
10.64167	-567
10.65000	-588
10.65833	-612
10.66667	-636
10.67500	-661
10.68333	-684
10.69167	-705
10.70000	-723
10.70833	-737
10.71667	-749
10.72500	-763
10.73333	-775
10.74167	-784
10.75000	-794
10.75833	-803
10.76667	-814
10.77500	-823
10.78333	-831
10.79167	-838
10.80000	-845
10.80833	-849
10.81667	-850
10.82500	-852
10.83333	-855
10.84167	-860
10.85000	-863
10.85833	-859
10.86667	-849
10.87500	-842
10.88333	-842
10.89167	-847
10.90000	-852
10.90833	-856
10.91667	-859
10.92500	-862
10.93333	-865
10.94167	-869
10.95000	-871
10.95833	-872
10.96667	-871
10.97500	-871
10.98333	-872
10.99167	-871
11.00000	-870
11.00833	-870
11.01667	-869
11.02500	-868
11.03333	-869
11.04167	-870
11.05000	-865
11.05833	-850
11.06667	-831
11.07500	-815
11.08333	-808
11.09167	-810
11.10000	-816
11.10833	-825
11.11667	-832
11.12500	-834
11.13333	-833
11.14167	-831
11.15000	-829
11.15833	-829
11.16667	-832
11.17500	-834
11.18333	-836
11.19167	-835
11.20000	-834
11.20833	-832
11.21667	-828
11.22500	-825
11.23333	-823
11.24167	-820
11.25000	-815
11.25833	-811
11.26667	-809
11.27500	-808
11.28333	-805
11.29167	-801
11.30000	-798
11.30833	-797
11.31667	-796
11.32500	-794
11.33333	-789
11.34167	-785
11.35000	-783
11.35833	-781
11.36667	-778
11.37500	-775
11.38333	-772
11.39167	-768
11.40000	-764
11.40833	-762
11.41667	-759
11.42500	-754
11.43333	-744
11.44167	-732
11.45000	-721
11.45833	-714
11.46667	-708
11.47500	-704
11.48333	-702
11.49167	-699
11.50000	-692
11.50833	-684
11.51667	-680
11.52500	-679
11.53333	-677
11.54167	-674
11.55000	-669
11.55833	-664
11.56667	-659
11.57500	-653
11.58333	-645
11.59167	-637
11.60000	-631
11.60833	-627
11.61667	-623
11.62500	-619
11.63333	-615
11.64167	-609
11.65000	-603
11.65833	-598
11.66667	-593
11.67500	-588
11.68333	-582
11.69167	-574
11.70000	-562
11.70833	-545
11.71667	-524
11.72500	-506
11.73333	-497
11.74167	-495
11.75000	-494
11.75833	-492
11.76667	-490
11.77500	-486
11.78333	-480
11.79167	-472
11.80000	-462
11.80833	-451
11.81667	-440
11.82500	-428
11.83333	-418
11.84167	-406
11.85000	-393
11.85833	-379
11.86667	-364
11.87500	-349
11.88333	-333
11.89167	-316
11.90000	-298
11.90833	-277
11.91667	-255
11.92500	-233
11.93333	-206
11.94167	-175
11.95000	-141
11.95833	-108
11.96667	-76
11.97500	-44
11.98333	-8
11.99167	33
12.00000	77
12.00833	122
12.01667	168
12.02500	214
12.03333	259
12.04167	304
12.05000	353
12.05833	407
12.06667	466
12.07500	522
12.08333	569
12.09167	602
12.10000	625
12.10833	644
12.11667	660
12.12500	672
12.13333	682
12.14167	689
12.15000	689
12.15833	684
12.16667	676
12.17500	667
12.18333	656
12.19167	643
12.20000	628
12.20833	610
12.21667	590
12.22500	567
12.23333	544
12.24167	521
12.25000	500
12.25833	480
12.26667	460
12.27500	441
12.28333	423
12.29167	405
12.30000	391
12.30833	383
12.31667	376
12.32500	368
12.33333	362
12.34167	357
12.35000	352
12.35833	349
12.36667	350
12.37500	353
12.38333	357
12.39167	362
12.40000	369
12.40833	377
12.41667	386
12.42500	393
12.43333	399
12.44167	407
12.45000	423
12.45833	448
12.46667	477
12.47500	499
12.48333	505
12.49167	498
12.50000	483
12.50833	464
12.51667	444
12.52500	423
12.53333	403
12.54167	387
12.55000	372
12.55833	354
12.56667	332
12.57500	307
12.58333	281
12.59167	254
12.60000	228
12.60833	204
12.61667	182
12.62500	161
12.63333	137
12.64167	111
12.65000	88
12.65833	69
12.66667	56
12.67500	53
12.68333	64
12.69167	89
12.70000	117
12.70833	132
12.71667	128
12.72500	105
12.73333	71
12.74167	35
12.75000	6
12.75833	-13
12.76667	-27
12.77500	-35
12.78333	-40
12.79167	-45
12.80000	-54
12.80833	-62
12.81667	-69
12.82500	-74
12.83333	-78
12.84167	-82
12.85000	-87
12.85833	-93
12.86667	-98
12.87500	-100
12.88333	-97
12.89167	-91
12.90000	-86
12.90833	-86
12.91667	-90
12.92500	-84
12.93333	-33
12.94167	78
12.95000	199
12.95833	257
12.96667	232
12.97500	156
12.98333	66
12.99167	-15
13.00000	-79
13.00833	-125
13.01667	-155
13.02500	-175
13.03333	-190
13.04167	-203
13.05000	-214
13.05833	-220
13.06667	-227
13.07500	-237
13.08333	-250
13.09167	-266
13.10000	-282
13.10833	-298
13.11667	-313
13.12500	-326
13.13333	-337
13.14167	-346
13.15000	-352
13.15833	-353
13.16667	-352
13.17500	-345
13.18333	-332
13.19167	-315
13.20000	-297
13.20833	-277
13.21667	-255
13.22500	-229
13.23333	-203
13.24167	-176
13.25000	-149
13.25833	-124
13.26667	-102
13.27500	-84
13.28333	-68
13.29167	-54
13.30000	-39
13.30833	-25
13.31667	-11
13.32500	3
13.33333	15
13.34167	27
13.35000	41
13.35833	57
13.36667	69
13.37500	79
13.38333	87
13.39167	93
13.40000	100
13.40833	109
13.41667	118
13.42500	126
13.43333	133
13.44167	140
13.45000	146
13.45833	152
13.46667	158
13.47500	163
13.48333	168
13.49167	173
13.50000	178
13.50833	182
13.51667	184
13.52500	185
13.53333	185
13.54167	184
13.55000	184
13.55833	181
13.56667	178
13.57500	175
13.58333	174
13.59167	172
13.60000	170
13.60833	169
13.61667	168
13.62500	166
13.63333	166
13.64167	166
13.65000	166
13.65833	165
13.66667	163
13.67500	163
13.68333	166
13.69167	167
13.70000	163
13.70833	155
13.71667	146
13.72500	136
13.73333	126
13.74167	115
13.75000	106
13.75833	102
13.76667	108
13.77500	118
13.78333	124
13.79167	123
13.80000	118
13.80833	118
13.81667	126
13.82500	133
13.83333	127
13.84167	111
13.85000	90
13.85833	67
13.86667	47
13.87500	30
13.88333	18
13.89167	9
13.90000	2
13.90833	-3
13.91667	-7
13.92500	-12
13.93333	-17
13.94167	-22
13.95000	-27
13.95833	-28
13.96667	-27
13.97500	-25
13.98333	-23
13.99167	-22
14.00000	-20
14.00833	-21
14.01667	-21
14.02500	-20
14.03333	-20
14.04167	-23
14.05000	-28
14.05833	-32
14.06667	-33
14.07500	-30
14.08333	-24
14.09167	-19
14.10000	-15
14.10833	-16
14.11667	-18
14.12500	-21
14.13333	-23
14.14167	-23
14.15000	-22
14.15833	-21
14.16667	-20
14.17500	-22
14.18333	-23
14.19167	-20
14.20000	-14
14.20833	-8
14.21667	-1
14.22500	6
14.23333	11
14.24167	13
14.25000	13
14.25833	10
14.26667	10
14.27500	15
14.28333	25
14.29167	32
14.30000	33
14.30833	30
14.31667	26
14.32500	25
14.33333	25
14.34167	27
14.35000	29
14.35833	30
14.36667	33
14.37500	40
14.38333	49
14.39167	59
14.40000	64
14.40833	67
14.41667	67
14.42500	67
14.43333	64
14.44167	61
14.45000	58
14.45833	59
14.46667	62
14.47500	64
14.48333	65
14.49167	65
14.50000	66
14.50833	66
14.51667	65
14.52500	64
14.53333	65
14.54167	67
14.55000	70
14.55833	74
14.56667	77
14.57500	78
14.58333	77
14.59167	76
14.60000	76
14.60833	76
14.61667	76
14.62500	77
14.63333	78
14.64167	81
14.65000	85
14.65833	90
14.66667	96
14.67500	101
14.68333	105
14.69167	109
14.70000	115
14.70833	119
14.71667	124
14.72500	129
14.73333	137
14.74167	147
14.75000	155
14.75833	162
14.76667	167
14.77500	171
14.78333	177
14.79167	184
14.80000	191
14.80833	199
14.81667	210
14.82500	222
14.83333	237
14.84167	256
14.85000	280
14.85833	306
14.86667	336
14.87500	371
14.88333	407
14.89167	446
14.90000	491
14.90833	545
14.91667	608
14.92500	679
14.93333	756
14.94167	837
14.95000	925
14.95833	1026
14.96667	1143
14.97500	1268
14.98333	1399
14.99167	1536
15.00000	1683
15.00833	1837
15.01667	2001
15.02500	2173
15.03333	2353
15.04167	2538
15.05000	2725
15.05833	2913
15.06667	3100
15.07500	3286
15.08333	3470
15.09167	3652
15.10000	3828
15.10833	3996
15.11667	4155
15.12500	4306
15.13333	4448
15.14167	4573
15.15000	4682
15.15833	4777
15.16667	4857
15.17500	4922
15.18333	4975
15.19167	5013
15.20000	5035
15.20833	5041
15.21667	5032
15.22500	5011
15.23333	4977
15.24167	4932
15.25000	4878
15.25833	4814
15.26667	4741
15.27500	4660
15.28333	4575
15.29167	4487
15.30000	4395
15.30833	4297
15.31667	4193
15.32500	4087
15.33333	3979
15.34167	3869
15.35000	3758
15.35833	3647
15.36667	3535
15.37500	3423
15.38333	3314
15.39167	3206
15.40000	3101
15.40833	2998
15.41667	2894
15.42500	2791
15.43333	2688
15.44167	2587
15.45000	2491
15.45833	2400
15.46667	2312
15.47500	2226
15.48333	2142
15.49167	2060
15.50000	1982
15.50833	1908
15.51667	1838
15.52500	1771
15.53333	1703
15.54167	1636
15.55000	1572
15.55833	1511
15.56667	1453
15.57500	1396
15.58333	1340
15.59167	1289
15.60000	1245
15.60833	1205
15.61667	1165
15.62500	1125
15.63333	1086
15.64167	1049
15.65000	1012
15.65833	978
15.66667	946
15.67500	917
15.68333	890
15.69167	866
15.70000	842
15.70833	819
15.71667	796
15.72500	772
15.73333	752
15.74167	735
15.75000	722
15.75833	707
15.76667	691
15.77500	674
15.78333	661
15.79167	650
15.80000	641
15.80833	630
15.81667	618
15.82500	607
15.83333	597
15.84167	588
15.85000	579
15.85833	570
15.86667	562
15.87500	554
15.88333	547
15.89167	542
15.90000	537
15.90833	531
15.91667	525
15.92500	517
15.93333	508
15.94167	497
15.95000	490
15.95833	488
15.96667	490
15.97500	495
15.98333	500
15.99167	500
16.00000	494
16.00833	483
16.01667	474
16.02500	469
16.03333	468
16.04167	467
16.05000	464
16.05833	461
16.06667	456
16.07500	449
16.08333	443
16.09167	437
16.10000	435
16.10833	440
16.11667	450
16.12500	458
16.13333	460
16.14167	456
16.15000	448
16.15833	441
16.16667	437
16.17500	433
16.18333	428
16.19167	425
16.20000	426
16.20833	431
16.21667	435
16.22500	436
16.23333	434
16.24167	430
16.25000	426
16.25833	423
16.26667	421
16.27500	419
16.28333	416
16.29167	414
16.30000	412
16.30833	412
16.31667	412
16.32500	413
16.33333	416
16.34167	420
16.35000	424
16.35833	427
16.36667	429
16.37500	429
16.38333	428
16.39167	427
16.40000	427
16.40833	426
16.41667	425
16.42500	424
16.43333	423
16.44167	423
16.45000	424
16.45833	423
16.46667	422
16.47500	421
16.48333	421
16.49167	422
16.50000	424
16.50833	426
16.51667	426
16.52500	425
16.53333	431
16.54167	442
16.55000	446
16.55833	444
16.56667	440
16.57500	440
16.58333	445
16.59167	454
16.60000	460
16.60833	460
16.61667	455
16.62500	450
16.63333	446
16.64167	442
16.65000	439
16.65833	438
16.66667	442
16.67500	448
16.68333	452
16.69167	452
16.70000	452
16.70833	453
16.71667	455
16.72500	458
16.73333	458
16.74167	458
16.75000	458
16.75833	457
16.76667	455
16.77500	454
16.78333	453
16.79167	450
16.80000	446
16.80833	445
16.81667	446
16.82500	447
16.83333	450
16.84167	452
16.85000	454
16.85833	456
16.86667	455
16.87500	450
16.88333	446
16.89167	444
16.90000	443
16.90833	441
16.91667	438
16.92500	436
16.93333	436
16.94167	436
16.95000	437
16.95833	438
16.96667	440
16.97500	443
16.98333	445
16.99167	447
17.00000	450
17.00833	452
17.01667	452
17.02500	453
17.03333	453
17.04167	453
17.05000	452
17.05833	452
17.06667	452
17.07500	453
17.08333	455
17.09167	455
17.10000	456
17.10833	457
17.11667	459
17.12500	462
17.13333	464
17.14167	466
17.15000	466
17.15833	466
17.16667	468
17.17500	470
17.18333	473
17.19167	475
17.20000	476
17.20833	477
17.21667	478
17.22500	480
17.23333	480
17.24167	479
17.25000	479
17.25833	479
17.26667	478
17.27500	478
17.28333	483
17.29167	495
17.30000	510
17.30833	522
17.31667	527
17.32500	525
17.33333	519
17.34167	513
17.35000	508
17.35833	503
17.36667	498
17.37500	494
17.38333	492
17.39167	490
17.40000	493
17.40833	500
17.41667	505
17.42500	505
17.43333	502
17.44167	499
17.45000	498
17.45833	498
17.46667	497
17.47500	496
17.48333	496
17.49167	496
17.50000	497
17.50833	499
17.51667	501
17.52500	501
17.53333	499
17.54167	496
17.55000	496
17.55833	496
17.56667	496
17.57500	495
17.58333	494
17.59167	493
17.60000	495
17.60833	498
17.61667	503
17.62500	508
17.63333	511
17.64167	509
17.65000	507
17.65833	506
17.66667	504
17.67500	507
17.68333	518
17.69167	528
17.70000	532
17.70833	531
17.71667	528
17.72500	525
17.73333	523
17.74167	522
17.75000	524
17.75833	525
17.76667	525
17.77500	522
17.78333	517
17.79167	515
17.80000	513
17.80833	511
17.81667	510
17.82500	512
17.83333	514
17.84167	514
17.85000	515
17.85833	517
17.86667	520
17.87500	523
17.88333	525
17.89167	530
17.90000	538
17.90833	548
17.91667	558
17.92500	562
17.93333	562
17.94167	557
17.95000	552
17.95833	549
17.96667	546
17.97500	543
17.98333	540
17.99167	539
18.00000	540

[LC Chromatogram(Detector B-Ch1)]
Interval(msec)	500
# of Points	2161
Start Time(min)	0.000
End Time(min)	18.000
Intensity Units	uRIU
Intensity Multiplier	0.001
R.Time (min)	Intensity
0.00000	378
0.00833	378
0.01667	376
0.02500	374
0.03333	372
0.04167	371
0.05000	370
0.05833	369
0.06667	369
0.07500	369
0.08333	369
0.09167	370
0.10000	371
0.10833	372
0.11667	373
0.12500	374
0.13333	375
0.14167	377
0.15000	378
0.15833	380
0.16667	382
0.17500	384
0.18333	386
0.19167	388
0.20000	390
0.20833	392
0.21667	394
0.22500	397
0.23333	399
0.24167	402
0.25000	404
0.25833	407
0.26667	410
0.27500	413
0.28333	416
0.29167	419
0.30000	421
0.30833	422
0.31667	424
0.32500	424
0.33333	425
0.34167	426
0.35000	427
0.35833	427
0.36667	428
0.37500	429
0.38333	430
0.39167	431
0.40000	432
0.40833	433
0.41667	434
0.42500	436
0.43333	437
0.44167	438
0.45000	439
0.45833	440
0.46667	441
0.47500	442
0.48333	443
0.49167	444
0.50000	444
0.50833	445
0.51667	445
0.52500	445
0.53333	445
0.54167	445
0.55000	444
0.55833	444
0.56667	442
0.57500	442
0.58333	440
0.59167	438
0.60000	436
0.60833	433
0.61667	430
0.62500	427
0.63333	423
0.64167	419
0.65000	413
0.65833	408
0.66667	402
0.67500	395
0.68333	388
0.69167	380
0.70000	372
0.70833	363
0.71667	353
0.72500	343
0.73333	332
0.74167	320
0.75000	308
0.75833	295
0.76667	283
0.77500	269
0.78333	255
0.79167	241
0.80000	226
0.80833	210
0.81667	195
0.82500	179
0.83333	162
0.84167	146
0.85000	129
0.85833	113
0.86667	98
0.87500	83
0.88333	68
0.89167	54
0.90000	40
0.90833	27
0.91667	15
0.92500	4
0.93333	-6
0.94167	-16
0.95000	-24
0.95833	-31
0.96667	-37
0.97500	-42
0.98333	-46
0.99167	-48
1.00000	-49
1.00833	-49
1.01667	-48
1.02500	-46
1.03333	-43
1.04167	-39
1.05000	-33
1.05833	-26
1.06667	-18
1.07500	-10
1.08333	-2
1.09167	8
1.10000	18
1.10833	28
1.11667	39
1.12500	51
1.13333	63
1.14167	75
1.15000	88
1.15833	100
1.16667	113
1.17500	125
1.18333	138
1.19167	151
1.20000	163
1.20833	175
1.21667	187
1.22500	198
1.23333	209
1.24167	220
1.25000	231
1.25833	241
1.26667	251
1.27500	261
1.28333	270
1.29167	279
1.30000	287
1.30833	296
1.31667	303
1.32500	311
1.33333	318
1.34167	324
1.35000	330
1.35833	336
1.36667	341
1.37500	346
1.38333	352
1.39167	357
1.40000	361
1.40833	364
1.41667	368
1.42500	371
1.43333	374
1.44167	376
1.45000	378
1.45833	381
1.46667	383
1.47500	385
1.48333	388
1.49167	390
1.50000	392
1.50833	393
1.51667	394
1.52500	395
1.53333	396
1.54167	397
1.55000	398
1.55833	399
1.56667	399
1.57500	400
1.58333	401
1.59167	402
1.60000	402
1.60833	403
1.61667	403
1.62500	403
1.63333	404
1.64167	404
1.65000	404
1.65833	404
1.66667	405
1.67500	405
1.68333	405
1.69167	406
1.70000	406
1.70833	407
1.71667	407
1.72500	407
1.73333	408
1.74167	408
1.75000	408
1.75833	408
1.76667	408
1.77500	408
1.78333	408
1.79167	407
1.80000	407
1.80833	407
1.81667	407
1.82500	407
1.83333	407
1.84167	406
1.85000	406
1.85833	405
1.86667	405
1.87500	404
1.88333	404
1.89167	404
1.90000	404
1.90833	403
1.91667	403
1.92500	403
1.93333	403
1.94167	402
1.95000	402
1.95833	401
1.96667	400
1.97500	400
1.98333	400
1.99167	399
2.00000	399
2.00833	399
2.01667	399
2.02500	398
2.03333	398
2.04167	397
2.05000	397
2.05833	396
2.06667	396
2.07500	396
2.08333	395
2.09167	395
2.10000	394
2.10833	394
2.11667	393
2.12500	393
2.13333	393
2.14167	392
2.15000	392
2.15833	391
2.16667	390
2.17500	390
2.18333	390
2.19167	389
2.20000	390
2.20833	390
2.21667	390
2.22500	390
2.23333	390
2.24167	390
2.25000	389
2.25833	389
2.26667	389
2.27500	389
2.28333	389
2.29167	388
2.30000	388
2.30833	388
2.31667	388
2.32500	388
2.33333	388
2.34167	388
2.35000	388
2.35833	388
2.36667	388
2.37500	388
2.38333	388
2.39167	388
2.40000	388
2.40833	388
2.41667	388
2.42500	388
2.43333	388
2.44167	387
2.45000	387
2.45833	387
2.46667	387
2.47500	387
2.48333	388
2.49167	387
2.50000	387
2.50833	387
2.51667	387
2.52500	387
2.53333	387
2.54167	387
2.55000	387
2.55833	387
2.56667	387
2.57500	387
2.58333	387
2.59167	386
2.60000	386
2.60833	386
2.61667	386
2.62500	386
2.63333	386
2.64167	385
2.65000	385
2.65833	384
2.66667	384
2.67500	383
2.68333	383
2.69167	383
2.70000	383
2.70833	383
2.71667	383
2.72500	383
2.73333	383
2.74167	383
2.75000	383
2.75833	383
2.76667	383
2.77500	383
2.78333	383
2.79167	383
2.80000	383
2.80833	383
2.81667	383
2.82500	382
2.83333	381
2.84167	380
2.85000	380
2.85833	380
2.86667	381
2.87500	381
2.88333	380
2.89167	380
2.90000	380
2.90833	380
2.91667	380
2.92500	379
2.93333	379
2.94167	379
2.95000	379
2.95833	378
2.96667	378
2.97500	378
2.98333	378
2.99167	378
3.00000	378
3.00833	378
3.01667	378
3.02500	378
3.03333	378
3.04167	378
3.05000	379
3.05833	379
3.06667	379
3.07500	378
3.08333	378
3.09167	378
3.10000	377
3.10833	377
3.11667	377
3.12500	377
3.13333	377
3.14167	377
3.15000	377
3.15833	376
3.16667	376
3.17500	376
3.18333	376
3.19167	376
3.20000	376
3.20833	376
3.21667	376
3.22500	376
3.23333	376
3.24167	376
3.25000	376
3.25833	376
3.26667	376
3.27500	375
3.28333	375
3.29167	374
3.30000	374
3.30833	374
3.31667	375
3.32500	375
3.33333	375
3.34167	375
3.35000	375
3.35833	376
3.36667	375
3.37500	375
3.38333	375
3.39167	375
3.40000	375
3.40833	376
3.41667	376
3.42500	376
3.43333	375
3.44167	375
3.45000	375
3.45833	375
3.46667	374
3.47500	373
3.48333	373
3.49167	373
3.50000	373
3.50833	373
3.51667	374
3.52500	374
3.53333	374
3.54167	374
3.55000	375
3.55833	375
3.56667	375
3.57500	375
3.58333	374
3.59167	374
3.60000	373
3.60833	373
3.61667	373
3.62500	373
3.63333	374
3.64167	374
3.65000	374
3.65833	375
3.66667	375
3.67500	375
3.68333	376
3.69167	377
3.70000	377
3.70833	377
3.71667	378
3.72500	378
3.73333	378
3.74167	378
3.75000	378
3.75833	377
3.76667	375
3.77500	373
3.78333	371
3.79167	370
3.80000	370
3.80833	370
3.81667	370
3.82500	370
3.83333	371
3.84167	371
3.85000	372
3.85833	372
3.86667	373
3.87500	372
3.88333	372
3.89167	372
3.90000	371
3.90833	371
3.91667	370
3.92500	370
3.93333	369
3.94167	369
3.95000	369
3.95833	369
3.96667	369
3.97500	368
3.98333	368
3.99167	368
4.00000	369
4.00833	369
4.01667	368
4.02500	368
4.03333	368
4.04167	367
4.05000	367
4.05833	367
4.06667	367
4.07500	367
4.08333	367
4.09167	367
4.10000	367
4.10833	367
4.11667	367
4.12500	367
4.13333	367
4.14167	367
4.15000	367
4.15833	366
4.16667	366
4.17500	366
4.18333	366
4.19167	366
4.20000	366
4.20833	366
4.21667	366
4.22500	365
4.23333	365
4.24167	364
4.25000	364
4.25833	363
4.26667	364
4.27500	364
4.28333	364
4.29167	364
4.30000	364
4.30833	364
4.31667	364
4.32500	364
4.33333	364
4.34167	364
4.35000	364
4.35833	364
4.36667	364
4.37500	364
4.38333	364
4.39167	364
4.40000	364
4.40833	365
4.41667	365
4.42500	366
4.43333	366
4.44167	367
4.45000	368
4.45833	369
4.46667	371
4.47500	372
4.48333	375
4.49167	377
4.50000	380
4.50833	383
4.51667	387
4.52500	391
4.53333	395
4.54167	400
4.55000	406
4.55833	412
4.56667	418
4.57500	425
4.58333	433
4.59167	441
4.60000	449
4.60833	458
4.61667	466
4.62500	475
4.63333	484
4.64167	493
4.65000	502
4.65833	510
4.66667	518
4.67500	526
4.68333	534
4.69167	542
4.70000	549
4.70833	556
4.71667	562
4.72500	568
4.73333	574
4.74167	579
4.75000	583
4.75833	587
4.76667	591
4.77500	593
4.78333	596
4.79167	598
4.80000	599
4.80833	600
4.81667	601
4.82500	601
4.83333	601
4.84167	601
4.85000	600
4.85833	598
4.86667	597
4.87500	595
4.88333	592
4.89167	590
4.90000	588
4.90833	586
4.91667	583
4.92500	581
4.93333	578
4.94167	576
4.95000	573
4.95833	570
4.96667	568
4.97500	566
4.98333	563
4.99167	561
5.00000	559
5.00833	557
5.01667	554
5.02500	551
5.03333	549
5.04167	547
5.05000	545
5.05833	543
5.06667	540
5.07500	538
5.08333	535
5.09167	533
5.10000	530
5.10833	528
5.11667	526
5.12500	524
5.13333	522
5.14167	521
5.15000	519
5.15833	517
5.16667	516
5.17500	515
5.18333	514
5.19167	514
5.20000	513
5.20833	512
5.21667	511
5.22500	510
5.23333	510
5.24167	509
5.25000	510
5.25833	509
5.26667	509
5.27500	509
5.28333	509
5.29167	510
5.30000	510
5.30833	511
5.31667	512
5.32500	514
5.33333	515
5.34167	516
5.35000	516
5.35833	516
5.36667	516
5.37500	517
5.38333	518
5.39167	519
5.40000	521
5.40833	522
5.41667	524
5.42500	526
5.43333	527
5.44167	529
5.45000	531
5.45833	533
5.46667	535
5.47500	537
5.48333	539
5.49167	541
5.50000	543
5.50833	545
5.51667	547
5.52500	549
5.53333	551
5.54167	553
5.55000	555
5.55833	557
5.56667	559
5.57500	562
5.58333	564
5.59167	567
5.60000	570
5.60833	572
5.61667	576
5.62500	580
5.63333	583
5.64167	586
5.65000	589
5.65833	592
5.66667	595
5.67500	597
5.68333	600
5.69167	603
5.70000	606
5.70833	609
5.71667	613
5.72500	617
5.73333	621
5.74167	625
5.75000	630
5.75833	634
5.76667	638
5.77500	643
5.78333	647
5.79167	652
5.80000	657
5.80833	662
5.81667	667
5.82500	671
5.83333	676
5.84167	681
5.85000	686
5.85833	691
5.86667	696
5.87500	702
5.88333	707
5.89167	713
5.90000	718
5.90833	723
5.91667	729
5.92500	735
5.93333	740
5.94167	746
5.95000	752
5.95833	759
5.96667	766
5.97500	775
5.98333	785
5.99167	797
6.00000	811
6.00833	828
6.01667	848
6.02500	873
6.03333	904
6.04167	946
6.05000	1003
6.05833	1084
6.06667	1203
6.07500	1379
6.08333	1638
6.09167	2012
6.10000	2541
6.10833	3272
6.11667	4254
6.12500	5544
6.13333	7196
6.14167	9266
6.15000	11805
6.15833	14861
6.16667	18477
6.17500	22687
6.18333	27519
6.19167	32991
6.20000	39117
6.20833	45901
6.21667	53341
6.22500	61433
6.23333	70163
6.24167	79517
6.25000	89473
6.25833	100011
6.26667	111106
6.27500	122733
6.28333	134862
6.29167	147467
6.30000	160515
6.30833	173976
6.31667	187819
6.32500	202011
6.33333	216522
6.34167	231320
6.35000	246373
6.35833	261648
6.36667	277111
6.37500	292728
6.38333	308463
6.39167	324270
6.40000	340079
6.40833	355598
6.41667	370092
6.42500	382947
6.43333	393636
6.44167	401545
6.45000	405912
6.45833	405348
6.46667	398512
6.47500	384998
6.48333	365253
6.49167	340343
6.50000	311696
6.50833	280853
6.51667	249273
6.52500	218207
6.53333	188636
6.54167	161251
6.55000	136477
6.55833	114510
6.56667	95368
6.57500	78936
6.58333	65010
6.59167	53340
6.60000	43655
6.60833	35683
6.61667	29167
6.62500	23871
6.63333	19587
6.64167	16133
6.65000	13357
6.65833	11127
6.66667	9338
6.67500	7902
6.68333	6747
6.69167	5816
6.70000	5064
6.70833	4454
6.71667	3956
6.72500	3549
6.73333	3215
6.74167	2939
6.75000	2710
6.75833	2518
6.76667	2357
6.77500	2222
6.78333	2108
6.79167	2010
6.80000	1927
6.80833	1854
6.81667	1791
6.82500	1735
6.83333	1686
6.84167	1641
6.85000	1601
6.85833	1564
6.86667	1530
6.87500	1498
6.88333	1467
6.89167	1438
6.90000	1411
6.90833	1384
6.91667	1360
6.92500	1336
6.93333	1313
6.94167	1291
6.95000	1269
6.95833	1249
6.96667	1229
6.97500	1210
6.98333	1192
6.99167	1174
7.00000	1156
7.00833	1139
7.01667	1123
7.02500	1107
7.03333	1092
7.04167	1077
7.05000	1063
7.05833	1049
7.06667	1036
7.07500	1023
7.08333	1010
7.09167	997
7.10000	985
7.10833	974
7.11667	963
7.12500	953
7.13333	943
7.14167	933
7.15000	924
7.15833	915
7.16667	906
7.17500	899
7.18333	891
7.19167	884
7.20000	877
7.20833	871
7.21667	865
7.22500	859
7.23333	853
7.24167	848
7.25000	843
7.25833	838
7.26667	834
7.27500	831
7.28333	827
7.29167	824
7.30000	821
7.30833	818
7.31667	815
7.32500	813
7.33333	811
7.34167	810
7.35000	808
7.35833	807
7.36667	805
7.37500	804
7.38333	803
7.39167	801
7.40000	800
7.40833	798
7.41667	796
7.42500	794
7.43333	793
7.44167	791
7.45000	790
7.45833	789
7.46667	789
7.47500	788
7.48333	787
7.49167	787
7.50000	786
7.50833	785
7.51667	785
7.52500	784
7.53333	784
7.54167	784
7.55000	784
7.55833	784
7.56667	784
7.57500	783
7.58333	784
7.59167	784
7.60000	784
7.60833	784
7.61667	784
7.62500	784
7.63333	784
7.64167	783
7.65000	783
7.65833	783
7.66667	783
7.67500	783
7.68333	782
7.69167	782
7.70000	781
7.70833	781
7.71667	781
7.72500	780
7.73333	779
7.74167	778
7.75000	777
7.75833	776
7.76667	775
7.77500	773
7.78333	771
7.79167	770
7.80000	769
7.80833	768
7.81667	768
7.82500	768
7.83333	768
7.84167	769
7.85000	771
7.85833	773
7.86667	776
7.87500	780
7.88333	784
7.89167	789
7.90000	794
7.90833	799
7.91667	805
7.92500	811
7.93333	817
7.94167	821
7.95000	825
7.95833	828
7.96667	831
7.97500	832
7.98333	832
7.99167	831
8.00000	829
8.00833	827
8.01667	824
8.02500	821
8.03333	818
8.04167	814
8.05000	811
8.05833	807
8.06667	803
8.07500	800
8.08333	796
8.09167	792
8.10000	789
8.10833	785
8.11667	782
8.12500	778
8.13333	775
8.14167	772
8.15000	769
8.15833	766
8.16667	764
8.17500	761
8.18333	759
8.19167	757
8.20000	754
8.20833	752
8.21667	750
8.22500	748
8.23333	746
8.24167	743
8.25000	741
8.25833	739
8.26667	737
8.27500	735
8.28333	733
8.29167	731
8.30000	729
8.30833	726
8.31667	725
8.32500	723
8.33333	721
8.34167	719
8.35000	717
8.35833	714
8.36667	712
8.37500	709
8.38333	707
8.39167	705
8.40000	704
8.40833	702
8.41667	700
8.42500	699
8.43333	697
8.44167	695
8.45000	693
8.45833	691
8.46667	690
8.47500	689
8.48333	688
8.49167	687
8.50000	686
8.50833	685
8.51667	684
8.52500	683
8.53333	682
8.54167	682
8.55000	682
8.55833	682
8.56667	682
8.57500	681
8.58333	681
8.59167	681
8.60000	681
8.60833	680
8.61667	680
8.62500	680
8.63333	679
8.64167	678
8.65000	677
8.65833	676
8.66667	676
8.67500	675
8.68333	674
8.69167	672
8.70000	671
8.70833	669
8.71667	668
8.72500	667
8.73333	666
8.74167	667
8.75000	667
8.75833	668
8.76667	670
8.77500	673
8.78333	676
8.79167	681
8.80000	686
8.80833	693
8.81667	702
8.82500	711
8.83333	721
8.84167	733
8.85000	745
8.85833	758
8.86667	771
8.87500	785
8.88333	798
8.89167	811
8.90000	824
8.90833	835
8.91667	846
8.92500	855
8.93333	862
8.94167	868
8.95000	872
8.95833	875
8.96667	876
8.97500	875
8.98333	872
8.99167	868
9.00000	862
9.00833	855
9.01667	847
9.02500	838
9.03333	828
9.04167	818
9.05000	808
9.05833	796
9.06667	785
9.07500	774
9.08333	763
9.09167	752
9.10000	741
9.10833	731
9.11667	721
9.12500	712
9.13333	702
9.14167	694
9.15000	686
9.15833	679
9.16667	672
9.17500	665
9.18333	659
9.19167	654
9.20000	649
9.20833	644
9.21667	639
9.22500	635
9.23333	630
9.24167	626
9.25000	622
9.25833	619
9.26667	616
9.27500	613
9.28333	611
9.29167	609
9.30000	608
9.30833	606
9.31667	605
9.32500	604
9.33333	602
9.34167	601
9.35000	600
9.35833	598
9.36667	597
9.37500	596
9.38333	595
9.39167	593
9.40000	591
9.40833	589
9.41667	587
9.42500	584
9.43333	582
9.44167	580
9.45000	579
9.45833	576
9.46667	574
9.47500	572
9.48333	570
9.49167	568
9.50000	566
9.50833	564
9.51667	562
9.52500	560
9.53333	558
9.54167	556
9.55000	555
9.55833	553
9.56667	551
9.57500	549
9.58333	547
9.59167	545
9.60000	543
9.60833	541
9.61667	539
9.62500	537
9.63333	536
9.64167	534
9.65000	533
9.65833	533
9.66667	532
9.67500	532
9.68333	532
9.69167	531
9.70000	532
9.70833	534
9.71667	536
9.72500	540
9.73333	544
9.74167	548
9.75000	553
9.75833	559
9.76667	565
9.77500	571
9.78333	578
9.79167	585
9.80000	591
9.80833	598
9.81667	604
9.82500	609
9.83333	614
9.84167	618
9.85000	621
9.85833	623
9.86667	625
9.87500	625
9.88333	625
9.89167	625
9.90000	624
9.90833	623
9.91667	621
9.92500	620
9.93333	619
9.94167	618
9.95000	617
9.95833	616
9.96667	616
9.97500	617
9.98333	618
9.99167	620
10.00000	621
10.00833	624
10.01667	626
10.02500	629
10.03333	632
10.04167	636
10.05000	639
10.05833	642
10.06667	645
10.07500	648
10.08333	649
10.09167	650
10.10000	651
10.10833	652
10.11667	653
10.12500	652
10.13333	652
10.14167	650
10.15000	648
10.15833	646
10.16667	643
10.17500	640
10.18333	637
10.19167	633
10.20000	629
10.20833	625
10.21667	621
10.22500	617
10.23333	612
10.24167	608
10.25000	603
10.25833	598
10.26667	594
10.27500	589
10.28333	584
10.29167	579
10.30000	574
10.30833	570
10.31667	566
10.32500	561
10.33333	556
10.34167	552
10.35000	547
10.35833	543
10.36667	538
10.37500	534
10.38333	529
10.39167	525
10.40000	521
10.40833	518
10.41667	514
10.42500	510
10.43333	506
10.44167	501
10.45000	498
10.45833	494
10.46667	492
10.47500	489
10.48333	487
10.49167	483
10.50000	480
10.50833	476
10.51667	472
10.52500	469
10.53333	466
10.54167	463
10.55000	460
10.55833	456
10.56667	454
10.57500	451
10.58333	449
10.59167	446
10.60000	444
10.60833	442
10.61667	440
10.62500	438
10.63333	437
10.64167	436
10.65000	436
10.65833	436
10.66667	438
10.67500	440
10.68333	443
10.69167	449
10.70000	456
10.70833	465
10.71667	476
10.72500	490
10.73333	507
10.74167	526
10.75000	548
10.75833	574
10.76667	602
10.77500	634
10.78333	668
10.79167	704
10.80000	741
10.80833	779
10.81667	816
10.82500	854
10.83333	890
10.84167	924
10.85000	955
10.85833	984
10.86667	1008
10.87500	1029
10.88333	1045
10.89167	1057
10.90000	1065
10.90833	1068
10.91667	1066
10.92500	1060
10.93333	1051
10.94167	1038
10.95000	1022
10.95833	1003
10.96667	982
10.97500	959
10.98333	935
10.99167	910
11.00000	884
11.00833	859
11.01667	834
11.02500	809
11.03333	785
11.04167	761
11.05000	739
11.05833	717
11.06667	697
11.07500	679
11.08333	661
11.09167	644
11.10000	629
11.10833	615
11.11667	603
11.12500	592
11.13333	583
11.14167	576
11.15000	569
11.15833	564
11.16667	560
11.17500	557
11.18333	554
11.19167	553
11.20000	552
11.20833	552
11.21667	551
11.22500	552
11.23333	553
11.24167	553
11.25000	553
11.25833	552
11.26667	550
11.27500	549
11.28333	546
11.29167	544
11.30000	540
11.30833	536
11.31667	531
11.32500	526
11.33333	520
11.34167	514
11.35000	507
11.35833	501
11.36667	494
11.37500	487
11.38333	480
11.39167	473
11.40000	467
11.40833	460
11.41667	453
11.42500	446
11.43333	440
11.44167	434
11.45000	428
11.45833	423
11.46667	419
11.47500	415
11.48333	411
11.49167	408
11.50000	404
11.50833	402
11.51667	399
11.52500	397
11.53333	396
11.54167	395
11.55000	394
11.55833	393
11.56667	393
11.57500	393
11.58333	393
11.59167	393
11.60000	395
11.60833	397
11.61667	401
11.62500	405
11.63333	410
11.64167	415
11.65000	420
11.65833	427
11.66667	434
11.67500	442
11.68333	451
11.69167	461
11.70000	471
11.70833	482
11.71667	493
11.72500	504
11.73333	516
11.74167	528
11.75000	539
11.75833	550
11.76667	559
11.77500	567
11.78333	575
11.79167	581
11.80000	586
11.80833	590
11.81667	593
11.82500	594
11.83333	594
11.84167	593
11.85000	590
11.85833	586
11.86667	581
11.87500	574
11.88333	567
11.89167	559
11.90000	550
11.90833	541
11.91667	531
11.92500	521
11.93333	511
11.94167	501
11.95000	491
11.95833	482
11.96667	473
11.97500	465
11.98333	457
11.99167	449
12.00000	442
12.00833	436
12.01667	430
12.02500	426
12.03333	423
12.04167	421
12.05000	420
12.05833	421
12.06667	423
12.07500	428
12.08333	434
12.09167	442
12.10000	452
12.10833	465
12.11667	480
12.12500	498
12.13333	518
12.14167	540
12.15000	565
12.15833	591
12.16667	619
12.17500	648
12.18333	678
12.19167	709
12.20000	740
12.20833	770
12.21667	798
12.22500	825
12.23333	849
12.24167	870
12.25000	888
12.25833	903
12.26667	914
12.27500	921
12.28333	925
12.29167	925
12.30000	921
12.30833	913
12.31667	903
12.32500	890
12.33333	876
12.34167	859
12.35000	841
12.35833	821
12.36667	801
12.37500	781
12.38333	761
12.39167	742
12.40000	724
12.40833	707
12.41667	691
12.42500	677
12.43333	665
12.44167	654
12.45000	646
12.45833	640
12.46667	637
12.47500	637
12.48333	640
12.49167	646
12.50000	656
12.50833	670
12.51667	687
12.52500	709
12.53333	734
12.54167	763
12.55000	797
12.55833	834
12.56667	874
12.57500	917
12.58333	963
12.59167	1010
12.60000	1058
12.60833	1107
12.61667	1154
12.62500	1200
12.63333	1244
12.64167	1284
12.65000	1319
12.65833	1350
12.66667	1375
12.67500	1395
12.68333	1408
12.69167	1416
12.70000	1417
12.70833	1413
12.71667	1403
12.72500	1388
12.73333	1368
12.74167	1345
12.75000	1318
12.75833	1288
12.76667	1256
12.77500	1223
12.78333	1190
12.79167	1156
12.80000	1122
12.80833	1089
12.81667	1056
12.82500	1024
12.83333	994
12.84167	965
12.85000	938
12.85833	913
12.86667	888
12.87500	866
12.88333	844
12.89167	824
12.90000	805
12.90833	788
12.91667	771
12.92500	756
12.93333	742
12.94167	730
12.95000	720
12.95833	712
12.96667	706
12.97500	702
12.98333	702
12.99167	707
13.00000	717
13.00833	736
13.01667	764
13.02500	805
13.03333	862
13.04167	941
13.05000	1049
13.05833	1195
13.06667	1388
13.07500	1645
13.08333	1983
13.09167	2426
13.10000	3003
13.10833	3753
13.11667	4719
13.12500	5959
13.13333	7541
13.14167	9548
13.15000	12081
13.15833	15256
13.16667	19211
13.17500	24101
13.18333	30102
13.19167	37412
13.20000	46240
13.20833	56811
13.21667	69359
13.22500	84112
13.23333	101290
13.24167	121084
13.25000	143645
13.25833	169068
13.26667	197367
13.27500	228466
13.28333	262133
13.29167	297135
13.30000	331649
13.30833	364894
13.31667	396710
13.32500	427139
13.33333	456237
13.34167	483997
13.35000	510348
13.35833	535178
13.36667	558365
13.37500	579802
13.38333	599416
13.39167	617181
13.40000	633115
13.40833	647280
13.41667	659769
13.42500	670696
13.43333	680189
13.44167	688373
13.45000	695372
13.45833	701297
13.46667	706242
13.47500	710292
13.48333	713511
13.49167	715949
13.50000	717644
13.50833	718619
13.51667	718887
13.52500	718454
13.53333	717317
13.54167	715467
13.55000	712890
13.55833	709569
13.56667	705488
13.57500	700629
13.58333	694982
13.59167	688540
13.60000	681307
13.60833	673296
13.61667	664534
13.62500	655060
13.63333	644929
13.64167	634208
13.65000	622978
13.65833	611326
13.66667	599349
13.67500	587143
13.68333	574801
13.69167	562410
13.70000	550044
13.70833	537764
13.71667	525612
13.72500	513613
13.73333	501776
13.74167	490090
13.75000	478531
13.75833	467064
13.76667	455644
13.77500	444064
13.78333	431579
13.79167	417668
13.80000	402235
13.80833	385374
13.81667	367260
13.82500	348093
13.83333	328084
13.84167	307447
13.85000	286407
13.85833	265200
13.86667	244066
13.87500	223246
13.88333	202973
13.89167	183461
13.90000	164896
13.90833	147431
13.91667	131180
13.92500	116216
13.93333	102571
13.94167	90244
13.95000	79204
13.95833	69392
13.96667	60735
13.97500	53147
13.98333	46534
13.99167	40800
14.00000	35850
14.00833	31593
14.01667	27944
14.02500	24823
14.03333	22158
14.04167	19885
14.05000	17947
14.05833	16294
14.06667	14883
14.07500	13675
14.08333	12639
14.09167	11748
14.10000	10978
14.10833	10311
14.11667	9729
14.12500	9218
14.13333	8768
14.14167	8367
14.15000	8008
14.15833	7686
14.16667	7394
14.17500	7128
14.18333	6884
14.19167	6658
14.20000	6448
14.20833	6253
14.21667	6069
14.22500	5896
14.23333	5733
14.24167	5578
14.25000	5432
14.25833	5292
14.26667	5159
14.27500	5031
14.28333	4910
14.29167	4794
14.30000	4683
14.30833	4577
14.31667	4475
14.32500	4376
14.33333	4281
14.34167	4190
14.35000	4102
14.35833	4018
14.36667	3938
14.37500	3860
14.38333	3786
14.39167	3714
14.40000	3646
14.40833	3579
14.41667	3516
14.42500	3454
14.43333	3395
14.44167	3338
14.45000	3283
14.45833	3230
14.46667	3179
14.47500	3130
14.48333	3082
14.49167	3036
14.50000	2991
14.50833	2947
14.51667	2906
14.52500	2865
14.53333	2826
14.54167	2789
14.55000	2752
14.55833	2717
14.56667	2682
14.57500	2648
14.58333	2615
14.59167	2583
14.60000	2552
14.60833	2522
14.61667	2493
14.62500	2464
14.63333	2437
14.64167	2410
14.65000	2384
14.65833	2358
14.66667	2334
14.67500	2310
14.68333	2287
14.69167	2265
14.70000	2243
14.70833	2221
14.71667	2200
14.72500	2179
14.73333	2159
14.74167	2140
14.75000	2121
14.75833	2102
14.76667	2083
14.77500	2065
14.78333	2048
14.79167	2030
14.80000	2012
14.80833	1995
14.81667	1978
14.82500	1962
14.83333	1945
14.84167	1929
14.85000	1912
14.85833	1896
14.86667	1881
14.87500	1866
14.88333	1851
14.89167	1836
14.90000	1821
14.90833	1806
14.91667	1791
14.92500	1777
14.93333	1763
14.94167	1749
14.95000	1735
14.95833	1722
14.96667	1708
14.97500	1695
14.98333	1681
14.99167	1668
15.00000	1655
15.00833	1643
15.01667	1630
15.02500	1618
15.03333	1606
15.04167	1594
15.05000	1581
15.05833	1570
15.06667	1558
15.07500	1547
15.08333	1535
15.09167	1525
15.10000	1514
15.10833	1503
15.11667	1492
15.12500	1482
15.13333	1472
15.14167	1461
15.15000	1452
15.15833	1442
15.16667	1433
15.17500	1424
15.18333	1415
15.19167	1406
15.20000	1397
15.20833	1388
15.21667	1380
15.22500	1371
15.23333	1363
15.24167	1354
15.25000	1346
15.25833	1338
15.26667	1330
15.27500	1322
15.28333	1314
15.29167	1306
15.30000	1298
15.30833	1291
15.31667	1283
15.32500	1277
15.33333	1270
15.34167	1263
15.35000	1256
15.35833	1249
15.36667	1242
15.37500	1236
15.38333	1229
15.39167	1222
15.40000	1216
15.40833	1209
15.41667	1202
15.42500	1196
15.43333	1190
15.44167	1184
15.45000	1178
15.45833	1172
15.46667	1166
15.47500	1160
15.48333	1154
15.49167	1149
15.50000	1143
15.50833	1137
15.51667	1132
15.52500	1126
15.53333	1120
15.54167	1114
15.55000	1108
15.55833	1103
15.56667	1097
15.57500	1092
15.58333	1086
15.59167	1081
15.60000	1076
15.60833	1071
15.61667	1066
15.62500	1061
15.63333	1056
15.64167	1051
15.65000	1047
15.65833	1042
15.66667	1037
15.67500	1032
15.68333	1028
15.69167	1023
15.70000	1018
15.70833	1014
15.71667	1009
15.72500	1004
15.73333	1000
15.74167	995
15.75000	990
15.75833	986
15.76667	981
15.77500	977
15.78333	973
15.79167	969
15.80000	965
15.80833	961
15.81667	957
15.82500	953
15.83333	949
15.84167	945
15.85000	941
15.85833	937
15.86667	933
15.87500	930
15.88333	926
15.89167	922
15.90000	918
15.90833	915
15.91667	911
15.92500	907
15.93333	903
15.94167	900
15.95000	897
15.95833	893
15.96667	889
15.97500	886
15.98333	883
15.99167	880
16.00000	877
16.00833	874
16.01667	871
16.02500	868
16.03333	864
16.04167	861
16.05000	858
16.05833	855
16.06667	851
16.07500	848
16.08333	844
16.09167	841
16.10000	837
16.10833	834
16.11667	831
16.12500	828
16.13333	825
16.14167	822
16.15000	819
16.15833	816
16.16667	813
16.17500	811
16.18333	808
16.19167	806
16.20000	803
16.20833	800
16.21667	796
16.22500	793
16.23333	790
16.24167	787
16.25000	784
16.25833	782
16.26667	779
16.27500	777
16.28333	774
16.29167	771
16.30000	768
16.30833	765
16.31667	762
16.32500	759
16.33333	756
16.34167	754
16.35000	751
16.35833	749
16.36667	746
16.37500	744
16.38333	742
16.39167	739
16.40000	737
16.40833	734
16.41667	732
16.42500	729
16.43333	726
16.44167	723
16.45000	721
16.45833	718
16.46667	716
16.47500	714
16.48333	712
16.49167	709
16.50000	707
16.50833	705
16.51667	703
16.52500	701
16.53333	699
16.54167	697
16.55000	695
16.55833	693
16.56667	692
16.57500	690
16.58333	688
16.59167	686
16.60000	684
16.60833	682
16.61667	680
16.62500	679
16.63333	677
16.64167	675
16.65000	673
16.65833	672
16.66667	670
16.67500	669
16.68333	667
16.69167	665
16.70000	663
16.70833	661
16.71667	660
16.72500	659
16.73333	657
16.74167	656
16.75000	656
16.75833	656
16.76667	656
16.77500	654
16.78333	652
16.79167	649
16.80000	647
16.80833	645
16.81667	643
16.82500	641
16.83333	639
16.84167	637
16.85000	635
16.85833	633
16.86667	631
16.87500	630
16.88333	628
16.89167	627
16.90000	626
16.90833	625
16.91667	623
16.92500	621
16.93333	619
16.94167	617
16.95000	615
16.95833	613
16.96667	612
16.97500	610
16.98333	609
16.99167	607
17.00000	605
17.00833	604
17.01667	602
17.02500	600
17.03333	599
17.04167	597
17.05000	596
17.05833	594
17.06667	592
17.07500	590
17.08333	588
17.09167	587
17.10000	586
17.10833	585
17.11667	584
17.12500	582
17.13333	581
17.14167	579
17.15000	578
17.15833	577
17.16667	576
17.17500	575
17.18333	574
17.19167	573
17.20000	573
17.20833	572
17.21667	570
17.22500	569
17.23333	568
17.24167	567
17.25000	566
17.25833	566
17.26667	565
17.27500	564
17.28333	563
17.29167	562
17.30000	561
17.30833	560
17.31667	560
17.32500	559
17.33333	558
17.34167	557
17.35000	555
17.35833	554
17.36667	553
17.37500	552
17.38333	551
17.39167	550
17.40000	549
17.40833	547
17.41667	546
17.42500	545
17.43333	544
17.44167	543
17.45000	542
17.45833	541
17.46667	540
17.47500	539
17.48333	537
17.49167	536
17.50000	534
17.50833	533
17.51667	532
17.52500	530
17.53333	529
17.54167	528
17.55000	526
17.55833	525
17.56667	524
17.57500	523
17.58333	522
17.59167	521
17.60000	520
17.60833	519
17.61667	518
17.62500	516
17.63333	514
17.64167	513
17.65000	512
17.65833	511
17.66667	510
17.67500	509
17.68333	508
17.69167	507
17.70000	506
17.70833	505
17.71667	505
17.72500	504
17.73333	504
17.74167	503
17.75000	502
17.75833	500
17.76667	499
17.77500	498
17.78333	497
17.79167	497
17.80000	496
17.80833	495
17.81667	494
17.82500	493
17.83333	492
17.84167	491
17.85000	490
17.85833	489
17.86667	488
17.87500	487
17.88333	486
17.89167	485
17.90000	485
17.90833	484
17.91667	483
17.92500	482
17.93333	481
17.94167	480
17.95000	479
17.95833	478
17.96667	477
17.97500	476
17.98333	475
17.99167	473
18.00000	472

